3.193341155684536261e+02,6.414056623670969657e+02,9.253943534479540176e+02,1.215817493804657488e+03,1.544811245300512837e+03,1.895724704347593615e+03,2.346041252074851400e+03,2.950039275708944842e+03,3.634273175738851478e+03,4.466349733644080516e+03,5.319176089322359985e+03,5.301174511240726133e+03,3.833259161521386432e+03,1.853190032467544370e+03,4.854359295392450804e+02,-3.941511523151039000e+02,-1.217625304918899474e+03,-1.948822714263320904e+03,-2.620586831839530987e+03,-3.341884007013246901e+03,-3.989458033703259844e+03,-4.413580426066236214e+03,-4.595968964273945858e+03,-4.613811689476404354e+03,-4.528237563317416971e+03,-4.307858598789287498e+03,-3.982075958501184232e+03,-3.636737681277259071e+03,-3.203944468970846174e+03,-2.534054173831515982e+03,-1.631440609238260549e+03,-6.144236231149047853e+02,5.137265012919508536e+02,1.774530340249086976e+03,3.052152652025763928e+03,4.407609675781901387e+03,5.874113319444608351e+03,6.672308806284236198e+03,6.021915916448244388e+03,4.585224626979776986e+03,3.571659200077629521e+03,3.119301584277082384e+03,2.637444905275792735e+03,1.963197104319016489e+03,1.453406847237040438e+03,1.171309739389533888e+03,7.506494547653164773e+02,1.476428465226151729e+02,-3.303881036669306468e+02,-6.101771009646729453e+02,-8.394927964732063401e+02,-1.103305992640731802e+03,-1.428109156193527724e+03,-1.837757038270455723e+03,-2.252286099399174873e+03,-2.515983185932466768e+03,-2.633763008492859626e+03,-2.684606755567695473e+03,-2.590173183506058194e+03,-2.295418142022809661e+03,-1.865843547454020381e+03,-1.289464810383079111e+03,-4.497268695149347195e+02,6.410801447582074388e+02,1.388567942755559898e+03,9.199494748367951615e+02,-6.140712382195213195e+02,-2.070004505183002948e+03,-2.826837974526169091e+03,-3.130352355776683908e+03,-3.150744485756745235e+03,-2.727142585228973985e+03,-1.997655086295638966e+03,-1.353652963655129497e+03,-7.804193646226483452e+02,-1.231477880441474326e+02,3.849877593683710870e+02,5.986873479057157965e+02,8.344630551240488785e+02,1.299971756679763757e+03,1.790581690152305782e+03,2.168278296692234562e+03,2.519717051047787663e+03,2.869077698166023310e+03,3.200253499064094285e+03,3.547199478705301317e+03,3.962008277743316285e+03,4.572885654960778993e+03,5.304730036434729300e+03,5.499390143638197515e+03,4.517792166977095803e+03,2.687254066937159223e+03,9.635686581111440319e+02,-1.875560940638481497e+02,-9.967690293778657633e+02,-1.706227528836777765e+03,-2.287657790737435789e+03,-2.762011504047585277e+03,-3.235072250804543728e+03,-3.605883402583208408e+03,-3.686888562719359470e+03,-3.553676811910849210e+03,-3.357867854345028263e+03,-3.042358718024773225e+03,-2.600092318917070315e+03,-2.153185595787468628e+03,-1.672129130284649818e+03,-1.076812525504956056e+03,-4.211101018079302776e+02,2.780096118177768858e+02,1.078102013760603768e+03,1.946379305564020569e+03,2.896567342787802772e+03,3.896858795375009777e+03,4.259516431450624623e+03,3.240109041884416456e+03,1.481179399963595870e+03,2.736302056681616932e+02,-2.577839988466576528e+02,-7.247821849181098059e+02,-1.235202492818548535e+03,-1.653339395748971128e+03,-2.022427266676772661e+03,-2.338239761356279814e+03,-2.557643775740292767e+03,-2.640788474389537441e+03,-2.515187531314606986e+03,-2.259291998135392078e+03,-1.982116766243067104e+03,-1.625871689894705924e+03,-1.217547332986649735e+03,-8.658146313589302281e+02,-4.478924214644797530e+02,2.181157102382215953e+02,1.022122015140098938e+03,1.764390295275574772e+03,2.492927642592318989e+03,3.304440312217697738e+03,4.195870702468379022e+03,5.105113565056799416e+03,5.452241280308026035e+03,4.473148913871094919e+03,2.637542369106698970e+03,1.223058508432588951e+03,4.600329723585400643e+02,-2.807980448963473918e+02,-1.133127523337693674e+03,-1.799114283040074724e+03,-2.206265282581443898e+03,-2.544484585985301237e+03,-2.941183486461702159e+03,-3.220578889343902574e+03,-3.174708365869275895e+03,-2.886332478660514425e+03,-2.525582902523934990e+03,-2.162130704331235847e+03,-1.784598724375785423e+03,-1.326434195061585115e+03,-7.930322441289980588e+02,-2.310381872286731095e+02,4.161730673246403285e+02,1.161939139543397459e+03,1.881023080328738615e+03,2.536543930645181717e+03,3.321097649572565842e+03,4.331849535833252958e+03,4.941811846657868955e+03,4.202152007499642423e+03,2.396785285426559312e+03,9.016280705458611919e+02,1.657864104285370104e+02,-4.754762493694215664e+02,-1.210535224717524216e+03,-1.703425883922430330e+03,-2.032610428613399108e+03,-2.424820817318623995e+03,-2.778272201701172435e+03,-2.967825606045886161e+03,-2.994254022453083508e+03,-2.827945041468601175e+03,-2.467597181454915699e+03,-2.039731984855511882e+03,-1.654312621232840911e+03,-1.241779650288237235e+03,-7.309390503886106671e+02,-2.046355151917871353e+02,3.594223079323011234e+02,1.060165742132147443e+03,1.763759091794516280e+03,2.511846237572952759e+03,3.566136722847455076e+03,4.318413168209506694e+03,3.728419518292849261e+03,2.185342014863569148e+03,9.830620773016735257e+02,4.118499076196962960e+02,-2.546339825079110142e+01,-4.868303025375287234e+02,-8.436441015808336488e+02,-1.106037427234011830e+03,-1.365021395529889560e+03,-1.610144963004205238e+03,-1.742093910741423088e+03,-1.654630163377971485e+03,-1.346659124709827438e+03,-9.785123002749344323e+02,-6.332289646609233387e+02,-2.315048268868004868e+02,1.667515631433654448e+02,4.596682697830112829e+02,7.914114195309307433e+02,1.266836484727060451e+03,1.738884977366731619e+03,2.097670262778707638e+03,2.518366338311433537e+03,3.271632246626561027e+03,3.971554457636054394e+03,3.614829164816249431e+03,2.219974228742347805e+03,1.051819855094228160e+03,6.343463204181229003e+02,3.762382344198676947e+02,-1.345541604055148923e+02,-8.817122673417591159e+02,-1.667229025275640197e+03,-2.178829835253344754e+03,-2.384948322676209955e+03,-2.640819072922653959e+03,-3.117307912823040169e+03,-3.478361027720567563e+03,-3.471830357078465568e+03,-3.386406136788784352e+03,-3.497908762780288271e+03,-3.620162903663449924e+03,-3.364484301165984107e+03,-2.506166430966544795e+03,-1.295366756513912605e+03,-2.582351592922939290e+02,4.491137725845217119e+02,9.989912089068354817e+02,1.608516514437915248e+03,2.519209645204001845e+03,3.324835707665150039e+03,2.967048333244636524e+03,1.369425719022838621e+03,-3.025739459098793418e+02,-1.413352652103767696e+03,-2.229939492420191073e+03,-2.726303086186874680e+03,-2.633404686959972423e+03,-2.240037337918811318e+03,-1.975175877921565188e+03,-1.765176525320551718e+03,-1.369369589792387615e+03,-7.443578746486052751e+02,5.800330967811771643e+01,9.083437993515944981e+02,1.651590108431396175e+03,2.281792981689456155e+03,2.861967895598731502e+03,3.423841118781150271e+03,3.999014725110850122e+03,4.580410790103254840e+03,5.151446541686812452e+03,5.745662121789241610e+03,6.382933309598106462e+03,6.925302511223779220e+03,6.929020005572682749e+03,5.901664787780619918e+03,4.049502015213341110e+03,2.284253560623885733e+03,1.064405699086886671e+03,2.832860836897089030e+01,-1.045641289874338554e+03,-1.952381034034709501e+03,-2.622442832805570106e+03,-3.212671202239766444e+03,-3.835002842762782620e+03,-4.397097050570895590e+03,-4.696064794843213349e+03,-4.751136792437981967e+03,-4.766569739858688081e+03,-4.799254252382695086e+03,-4.783792927219019475e+03,-4.595799746300207516e+03,-4.076096589506238161e+03,-3.273465581408442631e+03,-2.336287553638284862e+03,-1.280197416015329964e+03,-1.458857725794769067e+02,1.019069683635757428e+03,2.041109508411610477e+03,2.327346634474270104e+03,1.625745140549534881e+03,6.897769046327857723e+02,2.508145961602897387e+02,2.202683687660445457e+02,3.347505468194269724e+02,4.777860062327978312e+02,3.561444653455864682e+02,-2.418708327159138207e+02,-1.022743886737368143e+03,-1.571839833543182522e+03,-1.897537780413969813e+03,-2.123276032199059500e+03,-2.150508571072477935e+03,-2.053854548998235259e+03,-1.955864856094229253e+03,-1.600010554783200632e+03,-9.598765213201185134e+02,-4.264954516422951656e+02,4.532106813414941371e+00,6.016148839918294016e+02,1.293947299577135254e+03,2.006182222517447826e+03,2.816473246430593917e+03,3.346508933274382798e+03,2.974681608912477259e+03,2.013587036483391103e+03,1.526975129455795923e+03,1.771845154317716379e+03,2.084750827851346912e+03,2.186534172572473381e+03,2.414267286898618295e+03,2.804446477518048596e+03,2.862452306941799179e+03,2.376920112484023775e+03,1.744389922691236279e+03,1.293052913293445044e+03,9.562227612639146628e+02,6.338031551363508243e+02,3.432878497789467929e+02,1.051868855298878316e+02,-4.468290584541296084e+01,-7.541716067829588610e+01,-2.569112901622634126e+01,1.005797833975902336e+02,3.594990953118352195e+02,8.319754747292662387e+02,1.536043789142526748e+03,1.971783687425345306e+03,1.322539071003615391e+03,-3.014814625195219833e+02,-1.810458200414325120e+03,-2.660836807900536769e+03,-3.253601126908114111e+03,-3.836229443515501316e+03,-4.206060675467440888e+03,-4.362400202643551893e+03,-4.550093133902247246e+03,-4.778874999168374416e+03,-4.776521098600244841e+03,-4.343704050146308873e+03,-3.582212215772297895e+03,-2.751532957891732167e+03,-1.946416838358344194e+03,-1.088615286403225355e+03,-1.712373844709056812e+02,7.690322505498888859e+02,1.793794761386854361e+03,2.893964361888823987e+03,3.936708072347363668e+03,4.992124656546138795e+03,6.033517668937366579e+03,6.303572687096127993e+03,5.203612514734146316e+03,3.437545138458787733e+03,2.042279541331689643e+03,1.146207129771633390e+03,4.007188257032216825e+02,-3.519475287617292452e+02,-1.076558402424569522e+03,-1.683684342175566826e+03,-2.137156402260047344e+03,-2.417246303676144635e+03,-2.471746904538347280e+03,-2.322907164276071853e+03,-2.032007943524449956e+03,-1.639924140295173856e+03,-1.232672938415466888e+03,-8.518741096894412976e+02,-4.326096334821655773e+02,9.011505021394503956e+01,7.035244852467677674e+02,1.338576226056786254e+03,2.075068643297964627e+03,2.967253169116479512e+03,3.420924537688320015e+03,2.718858103690048210e+03,1.292991970192909776e+03,1.959120909434659552e+02,-3.820687226422295453e+02,-8.613679629902776469e+02,-1.293013459862713717e+03,-1.550967570990009108e+03,-1.733882823388537872e+03,-1.937279194720064652e+03,-2.105452222729017649e+03,-2.140283080262614931e+03,-1.979224056426599418e+03,-1.669174782730859988e+03,-1.343048738502481910e+03,-1.051461692365657200e+03,-7.291057555311303986e+02,-3.322099123795272817e+02,1.149611976844640822e+02,6.011770258316676063e+02,1.145611562427975741e+03,1.726846830276341734e+03,2.374046335323852418e+03,3.184559875530418140e+03,3.839043159778997506e+03,3.587655217317654206e+03,2.358946197988553649e+03,1.097575032327490135e+03,4.328461490914480692e+02,1.181822540427003787e+01,-5.266328679595675339e+02,-1.007632079359113050e+03,-1.311851269796475663e+03,-1.611776535133973766e+03,-1.961010278516748258e+03,-2.193413102528004856e+03,-2.199382588286625833e+03,-2.063686552812053378e+03,-1.904219815671048536e+03,-1.671467999284140660e+03,-1.345932935328780331e+03,-1.077345672803615116e+03,-8.012949247341543924e+02,-3.086823085708898020e+02,3.061843115080889675e+02,9.057063359147891788e+02,1.523721469674884929e+03,2.180787573051092295e+03,2.903338587635711519e+03,3.330015523494643730e+03,2.761855943516910884e+03,1.470267251971811447e+03,5.217516884233189103e+02,8.083135372500396443e+01,-3.602882244055800811e+02,-7.870252505807392254e+02,-1.029095073223148802e+03,-1.254903777047329640e+03,-1.537574518005870232e+03,-1.728461169076912029e+03,-1.761064244207516822e+03,-1.675149062041923116e+03,-1.459431238233475597e+03,-1.080797651367981416e+03,-6.563393887419468911e+02,-3.262395258332779804e+02,-1.869538191304624775e+01,3.733148514864138861e+02,8.424145102400609630e+02,1.351247231142881446e+03,1.921037438152059622e+03,2.665577843092204603e+03,3.353105953595095798e+03,3.274803637175310087e+03,2.267922106828550113e+03,1.097709545022712746e+03,3.768858534787496524e+02,-1.837250208963143905e+01,-3.834323679275182712e+02,-7.422201770203013211e+02,-1.050797942419435913e+03,-1.384721577250181781e+03,-1.755084605548243644e+03,-2.041607367727987366e+03,-2.165582780423438635e+03,-2.118165098041941746e+03,-1.911789939367435863e+03,-1.618184566459382722e+03,-1.296307223137554729e+03,-8.921350754786546986e+02,-3.606355867185073407e+02,2.764878796005738195e+02,9.834388091134378556e+02,1.668408374380083842e+03,2.379093758207211067e+03,3.194590878355158111e+03,3.522623865112234398e+03,2.638757736407189441e+03,1.072321235628651721e+03,-5.089342686329382559e+01,-6.177864302509243544e+02,-1.147029160239133944e+03,-1.678945144125465958e+03,-2.015959633435286150e+03,-2.234886923903876323e+03,-2.431339781980935186e+03,-2.508566162847503165e+03,-2.374920921709684990e+03,-2.074925403681633270e+03,-1.706978427277618039e+03,-1.280108140217519804e+03,-7.212906393076234508e+02,-3.339494995426997548e+01
-4.137249657891788956e+02,3.193826818711378337e+02,1.146736090784791031e+03,1.351793373626283937e+03,5.206719173296917234e+02,-5.978032048702730208e+02,-1.220985689868449072e+03,-1.507652747260794285e+03,-1.836168213280895998e+03,-2.040966548843219016e+03,-1.890578527943586096e+03,-1.612221465097978353e+03,-1.442565214448508414e+03,-1.250474931163708561e+03,-8.986865966553987164e+02,-4.606559661377161206e+02,2.803055985210210110e+01,6.131376732931245215e+02,1.197741595901605251e+03,1.766436358549772194e+03,2.565776792202400884e+03,3.322448601676308044e+03,3.135409703214430010e+03,1.898136120834150006e+03,5.418916770852097216e+02,-3.777064547594126793e+02,-1.048081728399260555e+03,-1.589548021319389591e+03,-1.839333193117085102e+03,-1.774570749626960378e+03,-1.620348500375168896e+03,-1.519369210600336601e+03,-1.389789811834245029e+03,-1.127876881805668518e+03,-7.281896712510227871e+02,-2.400989219520369602e+02,3.073763332534120423e+02,9.158387181185668169e+02,1.509292173894531061e+03,2.113923323899992738e+03,2.915011606588892391e+03,3.469209788305098755e+03,2.888811481601103424e+03,1.421331741286342094e+03,1.558436068327319504e+02,-6.662805088337004236e+02,-1.416173067836980408e+03,-2.048421076060241830e+03,-2.306665895608064147e+03,-2.221004585635181684e+03,-2.043984089373567258e+03,-1.916775850850264078e+03,-1.754336572010116925e+03,-1.459707669550668470e+03,-1.021306937247540077e+03,-4.599779472251847210e+02,1.447381012710452524e+02,7.616409465899159841e+02,1.416600141170377356e+03,2.020021656441324012e+03,2.663914207152778545e+03,3.519756979150205552e+03,3.885128009724305230e+03,2.828449371841391894e+03,9.420268816331395101e+02,-4.295084478055921409e+02,-1.160104249166755380e+03,-1.875241353070297919e+03,-2.470731424559057359e+03,-2.512689122160794795e+03,-2.250231213571560147e+03,-2.109547455400948365e+03,-1.955912974382918719e+03,-1.547645719478513456e+03,-9.848796516068148321e+02,-4.194504081865858893e+02,1.525428695851843486e+02,7.868421449816927407e+02,1.457214176472057261e+03,2.052368325190177984e+03,2.714018761611032005e+03,3.615719581887193272e+03,4.034777973400239716e+03,3.052336676012856515e+03,1.165732985227027029e+03,-4.559740599483586720e+02,-1.510870504651588362e+03,-2.222735559691747767e+03,-2.603941003916243062e+03,-2.610282756964391410e+03,-2.387845203544132346e+03,-2.163038180418243428e+03,-2.031036870829366762e+03,-1.849767264733731281e+03,-1.384603317122248200e+03,-6.744156640241978948e+02,-1.190362601693095712e+01,5.220578468586054441e+02,1.101069593292849504e+03,1.742348410724952373e+03,2.312891815880889226e+03,2.959444038125006045e+03,3.706714581574457497e+03,3.670342543908299376e+03,2.196875372183761556e+03,2.561721345288638076e+02,-9.875442235054794082e+02,-1.655560693737834526e+03,-2.150953059193551780e+03,-2.362681921316493572e+03,-2.245382496037393139e+03,-2.027229995888209032e+03,-1.857543985066855385e+03,-1.699234913275169902e+03,-1.458252531512702035e+03,-1.089214738940780990e+03,-5.884687426812529338e+02,-7.233273382749473512e+00,5.492909317476783144e+02,1.089812382232015807e+03,1.667726583661084078e+03,2.197825840350227736e+03,2.746402094036250219e+03,3.296733761640955436e+03,3.063190501876163125e+03,1.587302223492150461e+03,-9.016917606653726125e+01,-1.007323786693950524e+03,-1.453755118655822116e+03,-1.741658310236304260e+03,-1.722536585464895552e+03,-1.508044940931282099e+03,-1.376819087742969032e+03,-1.311676641804404653e+03,-1.156219480551635797e+03,-8.900414951606553586e+02,-5.216952934782668763e+02,-3.127120018456432149e+01,4.733574674379705129e+02,9.043683801498891626e+02,1.328970195395224209e+03,1.825443695259245033e+03,2.513862420621729143e+03,3.139582773565027765e+03,2.811034010381042663e+03,1.345666588734032757e+03,-2.086167197299136546e+02,-1.182412538815863627e+03,-1.790596997168188409e+03,-2.151071749132468085e+03,-2.166252997270626111e+03,-1.966625867499418746e+03,-1.789541417333763093e+03,-1.681498680736739288e+03,-1.538544181216059087e+03,-1.254660628815034897e+03,-8.348029694074082272e+02,-4.307476224099445972e+02,-8.376573044721686756e+01,3.951696247407244869e+02,1.060909988784346297e+03,1.681272128146577870e+03,2.221597460289998708e+03,2.974021225509869510e+03,3.587305253414225263e+03,2.998728445316025955e+03,1.218591620291248091e+03,-4.673272678310690367e+02,-1.441813787729150135e+03,-2.046367158459092479e+03,-2.392402850849556216e+03,-2.363550736884217713e+03,-2.146756056615234229e+03,-1.982023965436002527e+03,-1.835438383553181893e+03,-1.600539198974898682e+03,-1.264449873890747085e+03,-7.721600551369244840e+02,-1.187933579862423130e+02,4.890510631156940349e+02,1.007305857055605088e+03,1.689774389845625819e+03,2.494354875642621664e+03,3.203148971895245722e+03,4.035439674063079565e+03,4.794102132560443351e+03,4.339192595851404803e+03,2.457944652330023018e+03,5.018445052459691169e+02,-7.092601927955837482e+02,-1.489586220341081116e+03,-1.974973061773845529e+03,-2.031950016695927843e+03,-1.920416901561317445e+03,-1.974297060543509133e+03,-2.093556976393869263e+03,-2.073276870927893469e+03,-1.943096698658050627e+03,-1.708778630437877609e+03,-1.305087747106991173e+03,-8.033991021588087733e+02,-2.325746122652263921e+02,4.219974518032333890e+02,1.012410388160842103e+03,1.670621174597021763e+03,2.528997706311834008e+03,2.591833386034433715e+03,9.856382336915754649e+02,-1.167730833014274367e+03,-2.372306746554184429e+03,-2.625961393995355593e+03,-2.451594680209267608e+03,-2.013232432277448197e+03,-1.492930528870900616e+03,-1.139746626116146444e+03,-9.682319895625360004e+02,-8.011526265174650234e+02,-5.034778464925884691e+02,-5.467298642173159351e+01,4.933834635311187640e+02,1.077397137817522207e+03,1.725777192335574000e+03,2.486562252186328806e+03,3.211223284000678632e+03,3.835270027713756463e+03,4.645440777215094386e+03,5.327556740038254247e+03,4.622298269316889673e+03,2.237191912021022745e+03,-3.819336081107281871e+02,-2.039632106671474048e+03,-2.853527703003087026e+03,-3.236877953239529234e+03,-3.274560376930391612e+03,-3.090206920803238972e+03,-2.941853803887788672e+03,-2.862456682745099442e+03,-2.674436376033816487e+03,-2.314833585864072120e+03,-1.821597812395373239e+03,-1.167334584043971745e+03,-3.841497328093845454e+02,3.674654654722922942e+02,1.148195052013840723e+03,2.132466885054281192e+03,3.093347458063347858e+03,4.021791726422001375e+03,5.113888092233803945e+03,5.222460072108919121e+03,3.186505571326096288e+03,3.382962639329824697e+02,-1.479431544707615103e+03,-2.339171078883932296e+03,-2.863513111175948325e+03,-3.007492245801798617e+03,-2.789486596659809493e+03,-2.571886737888954030e+03,-2.487454862869560202e+03,-2.327366550337066201e+03,-1.957349959844127852e+03,-1.418669245518305161e+03,-7.553602782254225758e+02,-2.481354985438701988e+01,7.333389785689823839e+02,1.559239744001101826e+03,2.353648048008446949e+03,3.062395765240342371e+03,4.015689413212508043e+03,4.855536262393560719e+03,4.148953451844620758e+03,1.771185654968075141e+03,-5.084525661470801197e+02,-1.764900036767072152e+03,-2.498393174842357439e+03,-2.896708073788204274e+03,-2.798844436365930051e+03,-2.481572284120190034e+03,-2.297936729852545341e+03,-2.187749006169384302e+03,-1.936518186438489693e+03,-1.496036383078439485e+03,-9.051851017774532693e+02,-2.067460021145099631e+02,5.444235729932089498e+02,1.366418536222413422e+03,2.192188363885900799e+03,2.794022654097897430e+03,3.408009131687262197e+03,4.421132031606101918e+03,4.879086262426115354e+03,3.425831485002331647e+03,7.751688799562382428e+02,-1.253335289642808675e+03,-2.269735532904949650e+03,-2.877612015085120220e+03,-3.168106414939125898e+03,-3.018002339008462968e+03,-2.716105094487161296e+03,-2.545433720408599584e+03,-2.411162875998126765e+03,-2.116177923277055015e+03,-1.624077062872427405e+03,-9.966592603915817108e+02,-2.706955137609228927e+02,5.164449601728215384e+02,1.317057161357520272e+03,2.142557710217745807e+03,2.928693442213826074e+03,3.626498757264671895e+03,4.525207100738825829e+03,5.350067241009519421e+03,4.661416406591970372e+03,2.118488974006318585e+03,-4.678050800216173002e+02,-1.952710818230238601e+03,-2.876397170478867338e+03,-3.466334443699690382e+03,-3.478188483497443485e+03,-3.195618369750887723e+03,-2.993584111501289499e+03,-2.879547357803548493e+03,-2.692657191685442740e+03,-2.234753143241959151e+03,-1.521804965092997691e+03,-7.890149090690512139e+02,-8.019243408281045049e+01,6.699188241994738746e+02,1.413346576901566095e+03,2.203171185317397430e+03,3.014134728025530421e+03,3.693914349185818537e+03,4.527472175596823945e+03,5.400791090425246693e+03,4.892805391301933923e+03,2.441487260406547648e+03,-2.773335859340893421e+02,-1.876663166155336057e+03,-2.691713293376038564e+03,-3.184195503122109585e+03,-3.251817490231253032e+03,-3.005011361783041139e+03,-2.808281233367629284e+03,-2.723372648077921440e+03,-2.535441259464005270e+03,-2.161032158953977159e+03,-1.633648111049348699e+03,-8.963250679598846773e+02,-7.223653741948851348e+00,7.946901220012524618e+02,1.503935036335817131e+03,2.279524373495338295e+03,3.001158342706040912e+03,3.673655675433988108e+03,4.630903000778588648e+03,5.261585439836098885e+03,4.101558876423391666e+03,1.337875949482114493e+03,-1.079831771005852943e+03,-2.281129935676283822e+03,-2.921131914155863342e+03,-3.295900277343836933e+03,-3.208719127352232135e+03,-2.884817801988760948e+03,-2.684164916980805629e+03,-2.557548303656111329e+03,-2.265632150735851155e+03,-1.762737635300482225e+03,-1.149022835912892560e+03,-4.012389399401225205e+02,4.940831848780856035e+02,1.361713516180278702e+03,2.160346378487390666e+03,2.941788167961900854e+03,3.617906789849869710e+03,4.428394718847373042e+03,5.359241740072026005e+03,4.994683316113053479e+03,2.481593272583699218e+03,-4.519405945593478009e+02,-2.078913030457581954e+03,-2.846656290491753680e+03,-3.430074170057247102e+03,-3.566793436998364086e+03,-3.262006057232762942e+03,-2.990220485368271511e+03,-2.884869116681715695e+03,-2.700860674226055835e+03,-2.267401820331692306e+03,-1.681691078324104637e+03,-1.061728810632910609e+03,-2.883016806849141176e+02,6.372371783807060410e+02,1.426720243465469366e+03,2.094202330325796083e+03,2.869440251104368144e+03,3.660461637974677615e+03,4.511050469746928684e+03,5.349184341375790609e+03,5.005191304672003753e+03,2.780094240334563438e+03,9.742368343923487828e+01,-1.564789976344349270e+03,-2.411051832294197993e+03,-2.955341709193031420e+03,-3.112019025302481168e+03,-2.920038912125345632e+03,-2.735374196514178038e+03,-2.703986450885611703e+03,-2.614818551635331005e+03,-2.232720222205036862e+03,-1.627818588575943522e+03,-1.027250713329658538e+03,-4.418258169586023882e+02,2.021386846943837554e+02,8.402345341615663301e+02,1.491771580284457286e+03,2.207275152208339478e+03,2.820508869554259491e+03,3.411865361362726617e+03,4.290924036709058782e+03,4.757058637122258915e+03,3.551441844868039880e+03,1.101881896096448827e+03,-8.800064663753806826e+02,-1.854560754582464597e+03,-2.429031873094684670e+03,-2.769583472418119527e+03,-2.704186529140744369e+03,-2.480970610602695160e+03,-2.394261235864701121e+03,-2.346174805372339506e+03,-2.157286185316403134e+03,-1.795224952174069131e+03,-1.275373841241803120e+03,-6.507435561422803403e+02,-1.400973516162014221e+01,6.143171421075057879e+02,1.282471921610251684e+03,1.910406536406680743e+03,2.339610066616294716e+03,2.794556355879892180e+03,3.590665483196829882e+03,4.053704064976257996e+03,3.121113885255723744e+03,1.150932628604992715e+03,-5.269222831028656628e+02,-1.445365821639004480e+03,-1.975513691897088165e+03,-2.236898049629700836e+03,-2.137808431507207843e+03,-1.902071039294792172e+03,-1.790230225694354885e+03,-1.718215755968108169e+03,-1.508184403722595334e+03,-1.109819639110262642e+03,-5.810842420966619102e+02,-8.779202212576331021e+01,3.215810578751254525e+02,8.421068113578708108e+02,1.512726903402122161e+03,2.079602806529802365e+03,2.603072140978903917e+03,3.399948924254546000e+03,3.841515765429194289e+03,2.767157732940076585e+03,6.410348818208497050e+02,-8.942731392809921545e+02,-1.522057436423140189e+03,-2.009132296154493588e+03,-2.385120100373127116e+03,-2.329444611708532193e+03,-2.164084207607968892e+03,-2.232005584554488451e+03,-2.334630934651220741e+03,-2.218110168084705492e+03,-1.890853373395688095e+03,-1.449655624235138475e+03,-9.571663644654985319e+02,-4.337979686588731738e+02,1.182470888589308515e+02,6.984825324945564944e+02,1.310535194320939354e+03,1.875400145515958911e+03,2.374749268383552590e+03,3.069812440802734272e+03,3.758139540648917773e+03,3.365268644312379365e+03,1.612456311394475279e+03,-2.171941979571428192e+02,-1.233228874132278179e+03,-1.799552282553711393e+03,-2.197178747073894556e+03,-2.242148154082028213e+03,-2.023199077115495356e+03,-1.835780658728727758e+03,-1.683909943640106576e+03,-1.412924525617406744e+03,-1.007343653771079971e+03,-4.952351474241986580e+02,1.165828629619493029e+02
-3.124353967877560763e+02,-5.899126514352590220e+02,-1.012670929511627037e+03,-1.255027861205164754e+03,-1.236082490631597921e+03,-1.222220610153181497e+03,-1.187331664423992379e+03,-9.772620428511473847e+02,-7.586030779588477344e+02,-7.465967150438161752e+02,-7.813197054660519143e+02,-6.341490380423211946e+02,-4.431172318177365810e+02,-3.114426935940929866e+02,-8.084091591637357510e+01,1.979648412779435773e+02,4.557755209961498508e+02,8.518977620338167753e+02,1.253279451861416874e+03,1.532072228201932148e+03,2.017719316465958400e+03,2.575533503234190448e+03,2.460865412103693416e+03,1.609938116292536961e+03,7.228445208364012160e+02,1.517668363194181893e+02,-2.872545220553861327e+02,-6.878911336706935344e+02,-9.577909700353984590e+02,-1.180549329776722516e+03,-1.488983862647156002e+03,-1.728702190591217004e+03,-1.754953335914914760e+03,-1.715510081682893542e+03,-1.655849119917399094e+03,-1.401428963921815239e+03,-1.000286007452015610e+03,-6.484837724264095868e+02,-2.515395902397802388e+02,3.360115709100666095e+02,9.063844519550144696e+02,1.360564416673426194e+03,2.089653462007444432e+03,3.061475345649746941e+03,3.351532082777513097e+03,2.562906081761215319e+03,1.496247081477639313e+03,7.609377399230841093e+02,1.533955273937075958e+02,-4.852989249688895370e+02,-9.817782444191440163e+02,-1.262456438255841476e+03,-1.474923179715348851e+03,-1.725395883675580080e+03,-1.920617304519603749e+03,-1.960810957560473980e+03,-1.846909529156406961e+03,-1.589219215429201995e+03,-1.256253248074046269e+03,-8.837784508879724399e+02,-3.980756886207988146e+02,1.716884341360281496e+02,7.422905952063451878e+02,1.298132404364997683e+03,1.943343631759575601e+03,2.911689609091122293e+03,3.824489793344022473e+03,3.714129373744310669e+03,2.636647486478192604e+03,1.577583588645578857e+03,7.790891709833726964e+02,-3.904906293505399617e+01,-7.348563690132109514e+02,-1.152788229153444263e+03,-1.478818378852451588e+03,-1.851210171632036008e+03,-2.179877435828683701e+03,-2.351932803944239822e+03,-2.389373858098377241e+03,-2.364858214521787886e+03,-2.261463252442801604e+03,-2.044861988601696567e+03,-1.774628369840698042e+03,-1.455051820757746555e+03,-9.790159768623841501e+02,-3.782268229666170782e+02,2.060440576712582015e+02,7.690517391676852412e+02,1.474898455432839000e+03,2.502169004805687109e+03,3.502083600423979988e+03,3.620325058492477638e+03,2.761151580720495076e+03,1.775990149377069201e+03,1.042355347335857914e+03,2.820930299583349097e+02,-4.343791080196125449e+02,-8.427891238269642145e+02,-1.103570377238175297e+03,-1.427764064682639400e+03,-1.718461040214920104e+03,-1.879701704252677928e+03,-1.954282391353392086e+03,-1.927338274414534226e+03,-1.733042715427789744e+03,-1.410945307370410319e+03,-1.020728314334381594e+03,-5.601760471601485278e+02,-2.803668447057387425e+01,6.031571385085576367e+02,1.241219948948423053e+03,1.726550724895423855e+03,2.326337429373698342e+03,3.308506183264195897e+03,4.001746786234901720e+03,3.524687085633453989e+03,2.200295975649309185e+03,1.066253621990029615e+03,4.046563191498187280e+02,-2.125667964025274159e+02,-8.821224788094560836e+02,-1.330615679456562248e+03,-1.602379192369602151e+03,-1.959899595310160066e+03,-2.333573611245924894e+03,-2.503581292692606894e+03,-2.485923363427720233e+03,-2.363344001513882176e+03,-2.099185301743040782e+03,-1.666589481939770621e+03,-1.148293197489863587e+03,-6.033085707535049096e+02,4.251551832091797678e+01,8.031659366422966286e+02,1.519337298035919957e+03,2.231606593798511312e+03,3.218167400861917031e+03,4.113426398992716713e+03,3.974844168975290813e+03,2.831175767450186868e+03,1.674676999084546424e+03,8.302930010349391523e+02,-6.361605932180896161e+01,-9.184517148091881609e+02,-1.380330954504516285e+03,-1.621004532017544989e+03,-1.995579637469661520e+03,-2.405037594379162329e+03,-2.624462272392882369e+03,-2.650219097132527168e+03,-2.484380044322941103e+03,-2.187912470970481991e+03,-1.887665640595987270e+03,-1.485852998709482108e+03,-9.166092524376870188e+02,-3.623099207757838940e+02,1.678424419526621705e+02,8.497328070299440697e+02,1.648700634708704456e+03,2.371262306681316204e+03,3.080337228875846449e+03,4.053802578384519165e+03,4.886014548148546965e+03,4.595217100164592921e+03,3.305051488834807060e+03,2.124771706471749440e+03,1.265122430342093139e+03,2.531781845978124466e+02,-7.424147190467193695e+02,-1.396800550788044120e+03,-1.902815351072283647e+03,-2.431512035746603033e+03,-2.886204247316220062e+03,-3.177075845882303838e+03,-3.275542894761739262e+03,-3.244674389033803891e+03,-3.152209871680815922e+03,-2.921592846181594268e+03,-2.536666759440714941e+03,-2.099918289087874655e+03,-1.612661024718509452e+03,-1.065486826673547966e+03,-4.901072233887326774e+02,2.124625169266736293e+02,1.038489562455117948e+03,1.785849866111262145e+03,2.616437197646402183e+03,3.785353021655063912e+03,4.628757062703304655e+03,4.254283529001262650e+03,3.021243707489021745e+03,1.918715839425738068e+03,1.147996288763958546e+03,3.963502127896816774e+02,-3.204446539320723559e+02,-8.030628803770690638e+02,-1.085408014020223163e+03,-1.358877665414397143e+03,-1.696700172080805260e+03,-1.947195992921096149e+03,-1.937949505232509182e+03,-1.747738615711054990e+03,-1.531107125551603531e+03,-1.255367818916598026e+03,-9.247136359979919007e+02,-6.131266568120671536e+02,-1.921357971107303513e+02,4.235759723460967052e+02,1.030614042706925829e+03,1.550341831010850683e+03,2.303848553404508493e+03,3.350459026330862798e+03,3.850120348547747199e+03,3.095010869153768454e+03,1.754375129397960109e+03,7.700300787577471056e+02,-8.745549602648907239e+00,-8.321676423805020022e+02,-1.339711448431565714e+03,-1.669212668343971927e+03,-2.062789366257145048e+03,-1.588365876832348476e+03,-1.215545872039663493e+02,3.129250921527724358e+02,-8.226506963868143885e+02,-1.501469212308279793e+03,-1.434732991854760257e+03,-2.151508571086671964e+03,-3.152143197841854089e+03,-3.054054047433914093e+03,-2.340709731300385101e+03,-1.666778217278710599e+03,-6.261915189689095769e+02,6.633188903411145247e+02,1.790004276014165043e+03,3.167252251183068438e+03,4.651336309550748410e+03,4.908983870122737244e+03,3.642489597131758273e+03,2.170454442734137956e+03,1.208884363945840960e+03,2.994298119915283110e+02,-6.872523352339917437e+02,-1.333226938470157620e+03,-1.616278681122325906e+03,-1.909016242384657289e+03,-2.317072881875855273e+03,-2.597651607012609020e+03,-2.624573137058725479e+03,-2.538963006164757644e+03,-2.403227597010817590e+03,-2.116055533371857564e+03,-1.633062083427076232e+03,-9.799488974539369792e+02,-2.480834372968984098e+02,4.741447064643764406e+02,1.253734786428457710e+03,2.030771191509547862e+03,2.706483704102210140e+03,3.654429239224969024e+03,4.784826112255090266e+03,4.922293125386899192e+03,3.709623556656982146e+03,2.295817827046672392e+03,1.337577654628404616e+03,4.444186897759366275e+02,-5.105569096436648806e+02,-1.178574513356395755e+03,-1.513503477802407360e+03,-1.840245384429387286e+03,-2.291364536171718100e+03,-2.663903798447491681e+03,-2.825344176531453741e+03,-2.834179156385621354e+03,-2.660642757022367277e+03,-2.264417545293971216e+03,-1.783217916656796206e+03,-1.279563547713006756e+03,-6.533249637775295469e+02,9.143108455512822275e+01,8.448484339889308785e+02,1.537979842673998746e+03,2.242345183291850844e+03,3.240899905718171794e+03,4.319473153641338286e+03,4.343168608263493297e+03,2.997588308869594130e+03,1.567495304322436368e+03,6.858704662708661317e+02,-2.333586247072529432e+02,-1.167800520829626066e+03,-1.670867779702949520e+03,-1.983142761068777418e+03,-2.409260229115272978e+03,-2.781894292075275189e+03,-2.962734997681188815e+03,-2.998800054252836162e+03,-2.898293372440374242e+03,-2.641146727321348862e+03,-2.230178284580877062e+03,-1.708165246155726209e+03,-1.157737683956279852e+03,-5.524299265198999365e+02,1.850521361717768514e+02,9.509045108471276535e+02,1.646463836725840110e+03,2.464515834385610560e+03,3.629719653811838270e+03,4.717352611450500262e+03,4.708055081908574721e+03,3.437181973374577410e+03,2.055898485834960411e+03,1.236650694435098103e+03,5.177902399739862176e+02,-2.837648885131063707e+02,-8.659689216124822906e+02,-1.268826605847136307e+03,-1.627793786191245545e+03,-1.885531510806061306e+03,-2.055515307626466438e+03,-2.097950278554398665e+03,-1.891444137923446078e+03,-1.492524993124446837e+03,-1.002438354542154684e+03,-4.062077893966475699e+02,2.881047311139640215e+02,9.629367201212812688e+02,1.631775624725313264e+03,2.590860170201761775e+03,3.623128790136575844e+03,3.673469577311904686e+03,2.442023308648895636e+03,9.792968973301173037e+02,-3.678175464117066440e+01,-9.011215888485509140e+02,-1.719371291125481548e+03,-2.167869107122810419e+03,-2.272840002629730407e+03,-2.411184327135363674e+03,-2.643043758176489973e+03,-2.745554372467485791e+03,-2.661691085573726923e+03,-2.424541131299042263e+03,-2.034764135627309315e+03,-1.555446890680510933e+03,-9.935124262156698478e+02,-2.637551665171637296e+02,6.381483181755132819e+02,1.563356165659511589e+03,2.345089974720933697e+03,3.226203037609525381e+03,4.487985817265594051e+03,5.281956258184502076e+03,4.558125900153350813e+03,2.961080581716384131e+03,1.653360103388747348e+03,5.883076016732870812e+02,-5.075104428897001299e+02,-1.386007073673029026e+03,-1.973159454743598189e+03,-2.411499479266551134e+03,-2.746690026893568302e+03,-2.986948659906249304e+03,-3.044402592751263455e+03,-2.848721647210069023e+03,-2.560726874988952659e+03,-2.267325205635072052e+03,-1.838845447766239431e+03,-1.272680173898284011e+03,-6.805132846140833180e+02,-6.297841509908494118e+01,6.505539233487384081e+02,1.432053264734197001e+03,2.190692824262638169e+03,3.139373677513419352e+03,4.357191189029963425e+03,4.955352288864891307e+03,4.182756492176666143e+03,2.738870283303692759e+03,1.550780214618244827e+03,5.781215750704323000e+02,-3.664622628915757332e+02,-1.074153765256272891e+03,-1.495831160036809251e+03,-1.863610451490082596e+03,-2.273714672701416930e+03,-2.616469469052187378e+03,-2.800815812961716802e+03,-2.802951906544473786e+03,-2.619646300795786829e+03,-2.326787934841100196e+03,-1.998204359544705767e+03,-1.577850434203127861e+03,-1.038077064979799616e+03,-4.439126606855240880e+02,2.089750615042354411e+02,9.522680025660821457e+02,1.679595280857673288e+03,2.316283118703644959e+03,3.149378775201571443e+03,4.254511681174022669e+03,4.728228283197970086e+03,3.861740667568403296e+03,2.422380897403738800e+03,1.330773125197035370e+03,4.288511989393255135e+02,-4.970556350873825977e+02,-1.153115826520054725e+03,-1.506347226403018567e+03,-1.824793156569472558e+03,-2.197584239198957221e+03,-2.556532527521925203e+03,-2.793955762621975282e+03,-2.847563273668102283e+03,-2.730876320471890722e+03,-2.445903236887113053e+03,-2.091775216091426955e+03,-1.813710052518315706e+03,-1.458707724726522656e+03,-8.060807846440850426e+02,-4.226580047693516917e+01,5.950207419046806763e+02,1.220477456616177733e+03,1.888765446893429271e+03,2.506884752267500517e+03,3.338424896384978183e+03,4.472874703274894273e+03,4.987766563300372582e+03,4.122980436904842463e+03,2.627192715879621119e+03,1.541561994804545066e+03,7.891349237169628168e+02,-2.181309663731678938e+01,-6.886441077683218737e+02,-1.028401177466584613e+03,-1.339841677682790305e+03,-1.773957576244923530e+03,-2.098636967610670581e+03,-2.238794828602454345e+03,-2.320113702283639213e+03,-2.354685678646304495e+03,-2.299998604659182547e+03,-2.137634862384462849e+03,-1.895039239024471499e+03,-1.675539697216213426e+03,-1.468965214270195020e+03,-1.142728624386359343e+03,-7.098508107652710351e+02,-2.611877074291418239e+02,2.593739041397346909e+02,8.667794515938793438e+02,1.469094508482915899e+03,2.242001467282551857e+03,3.241970341706875388e+03,3.690093615771005261e+03,2.972335149813587577e+03,1.746547508223873137e+03,8.076418960295205807e+02,8.555152687293821145e+01,-5.685892229185284350e+02,-9.863308254386241742e+02,-1.216323101013763335e+03,-1.509788125718190940e+03,-1.857764337508465132e+03,-2.041255126920127850e+03,-2.024081106969556458e+03,-1.909008602400735981e+03,-1.681338941768344739e+03,-1.354302285236730540e+03,-1.009279498229572937e+03,-5.839578254791881591e+02,-2.052621482580138945e+01,6.368922972428298408e+02,1.396078046983313470e+03,2.163545186114727585e+03,2.783629637543315766e+03,3.446930945353844891e+03,4.260041083049442022e+03,4.540068681499989907e+03,3.697465811096255038e+03,2.323584186815749035e+03,1.281774785944827727e+03,5.932796102417347583e+02,7.004147399828070775e+00,-4.015136482388929835e+02,-6.547522196221254944e+02,-9.798301755269421847e+02,-1.404974833939355449e+03,-1.764151950757930535e+03,-1.917398810844282252e+03,-1.883796764318931082e+03,-1.861271161346048530e+03,-1.955792839150846476e+03,-2.019649275866563130e+03,-1.937936391554727834e+03,-1.834816979913092382e+03,-1.767151252676997501e+03,-1.552005091793214433e+03,-1.182458462210181551e+03,-8.513132371920344212e+02
1.631287632228589928e+02,7.025001729437751692e+02,1.133168663223425028e+03,1.500327942179416596e+03,1.960587140189852562e+03,2.561787153350537665e+03,3.165280051616329729e+03,3.721338851302291459e+03,4.485511238868637520e+03,5.282923745133674856e+03,4.954821728604842974e+03,3.001951501149593696e+03,7.602423520560395218e+02,-5.760187802681984977e+02,-1.321400105868293394e+03,-1.912347697732569031e+03,-2.236727156228972945e+03,-2.428067356579020270e+03,-2.751119722574150728e+03,-3.051762362496269816e+03,-3.105073072013306955e+03,-2.907451490160854974e+03,-2.448091823313673103e+03,-1.789753116824629842e+03,-1.127769878121981492e+03,-4.616463259574776430e+02,2.500112317602745406e+02,8.225559693431110873e+02,1.299975309969333239e+03,1.929880560900639921e+03,2.658168497095207385e+03,3.505542255590859895e+03,4.377079291405430922e+03,4.250560702896317707e+03,2.524922816746613080e+03,3.949963528394197283e+02,-8.935671116951965587e+02,-1.512905414677405588e+03,-1.918934055439635813e+03,-2.096853710259229047e+03,-2.164636198924253222e+03,-2.398238269757023318e+03,-2.703347768433833608e+03,-2.766988611523768213e+03,-2.515262322776351084e+03,-2.066425783339430836e+03,-1.498006467999863162e+03,-8.586099342312804765e+02,-2.109012812027332302e+02,4.309672320356048658e+02,1.069282171726472825e+03,1.640027461909736758e+03,2.122865091786367884e+03,2.725383728813302241e+03,3.618230727481860413e+03,4.241652711966422430e+03,3.586399339034378499e+03,1.712691753460504515e+03,-7.899191791035445931e+01,-1.002696167501318655e+03,-1.378683670735643091e+03,-1.537302259441137267e+03,-1.556657537680591759e+03,-1.693072426966304647e+03,-2.015067616320310663e+03,-2.175982282749403112e+03,-1.973439119798816591e+03,-1.540804891509062600e+03,-9.976193445279983507e+02,-3.717666745863173219e+02,2.760742274123130073e+02,9.244236605361028296e+02,1.587617781582799807e+03,2.196454829737625005e+03,2.788835215023186720e+03,3.378456478220673944e+03,3.293926921798892636e+03,1.864381427619457554e+03,-1.322485204294636958e+02,-1.404642060408734551e+03,-1.899481632067107512e+03,-2.112246521263778504e+03,-2.113938192152987540e+03,-2.087585094673895583e+03,-2.281529171040737765e+03,-2.460730468629285497e+03,-2.330935931497148886e+03,-1.940221556059579143e+03,-1.386874386408050896e+03,-6.865330657292473688e+02,8.769319023778268729e+01,8.262079209717084041e+02,1.516896331057768066e+03,2.224204807460235770e+03,2.945015604667531079e+03,3.690922321089647994e+03,4.465699697116237076e+03,4.667381242347273655e+03,3.379155087176595771e+03,1.017892628198832199e+03,-8.398206777132318166e+02,-1.678127882737216851e+03,-2.151470339567335941e+03,-2.464052887283870859e+03,-2.531184152041320885e+03,-2.721769144884138768e+03,-3.117378891483082953e+03,-3.146368224024089614e+03,-2.615029025352368080e+03,-1.969857220775987116e+03,-1.377212360208783821e+03,-6.532994312106773123e+02,1.314886180038486145e+02,8.271620056767765163e+02,1.549132763308804442e+03,2.355663082062284957e+03,3.095713627449708838e+03,3.906730086452232172e+03,4.881946287278774435e+03,5.018215053082041777e+03,3.370186746797138767e+03,9.946423375290974036e+02,-5.883167947679944518e+02,-1.523703945037606900e+03,-2.329635595063021356e+03,-2.747469217627244689e+03,-2.805709950774349636e+03,-2.962397605405063587e+03,-3.193455200385112221e+03,-3.165022085106683335e+03,-2.872170976654669175e+03,-2.443735364064076748e+03,-1.787032993917805925e+03,-9.044884669939864352e+02,-6.733001236755092123e+01,5.921020123219619791e+02,1.231340433027205108e+03,2.018183341489359236e+03,2.868501954390890660e+03,3.683628962084291743e+03,4.641186745400142172e+03,5.319712746095288821e+03,4.509301176698852032e+03,2.278303076563900504e+03,2.398347251980069359e+02,-9.476243179752764263e+02,-1.803615359247936340e+03,-2.364339454909824781e+03,-2.510871088114189661e+03,-2.649814121147158858e+03,-2.939881532990809319e+03,-3.072093201189557931e+03,-2.953703637042839091e+03,-2.656453850744437659e+03,-2.063720937878082623e+03,-1.247755718606516439e+03,-5.278471183691666511e+02,5.682788133522774388e+01,6.410151323750708343e+02,1.255226437952921970e+03,1.907581501738442057e+03,2.557790696704804304e+03,3.311297973759736578e+03,4.167674894839480658e+03,4.190156644560596760e+03,2.582271613534956032e+03,3.936812433645079636e+02,-9.417093347875307927e+02,-1.518251101710659896e+03,-1.856729487750589215e+03,-1.924736682146901330e+03,-1.906524359604294659e+03,-2.111898796738018973e+03,-2.330997830455570693e+03,-2.280691590772072232e+03,-1.974723177622837284e+03,-1.444741794080502132e+03,-7.400270131940571900e+02,-1.618942164603708989e+00,6.883351655648434644e+02,1.346199149993716674e+03,1.992880469877801261e+03,2.616720196816560019e+03,3.367315306482197684e+03,4.263764303368077890e+03,4.412462354299304025e+03,2.946480537125448791e+03,7.281239662092854132e+02,-7.950748254429756798e+02,-1.549278083812805789e+03,-2.062768072418994961e+03,-2.344536190945244016e+03,-2.437000195226476535e+03,-2.601907100127963531e+03,-2.796167699838796125e+03,-2.805586201089930910e+03,-2.567527453835444248e+03,-2.111638492072903318e+03,-1.526018492657432489e+03,-8.926077022377353387e+02,-1.955180349127858790e+02,5.391766287273792386e+02,1.219160417991477743e+03,1.877096626839486817e+03,2.583692516749917559e+03,3.311119181872069930e+03,4.075230889788238073e+03,4.633993912708656353e+03,4.161982178737863251e+03,2.356199852631699741e+03,3.124660183375220868e+02,-9.403260942511739131e+02,-1.630301293791412036e+03,-2.155694890294896595e+03,-2.431921127896584039e+03,-2.591827799042955576e+03,-2.869091272323840712e+03,-3.057438666032584933e+03,-2.931410169454691641e+03,-2.586554344737719020e+03,-2.124692223724191535e+03,-1.552988630700697286e+03,-9.102129655672895296e+02,-2.520897754569081144e+02,3.702481484201626927e+02,9.623185233464851080e+02,1.626565129592922403e+03,2.331748911046638568e+03,2.892453475678469658e+03,3.476767452295873682e+03,4.356087815311701888e+03,4.854924064676321905e+03,3.908187183130733047e+03,1.832959000403233404e+03,2.274115387298354563e+01,-9.652875878121947153e+02,-1.601608548759703353e+03,-2.109360531952562724e+03,-2.356365198486999361e+03,-2.528752816232802161e+03,-2.825748390246970303e+03,-3.033506816385791808e+03,-2.952043920045522100e+03,-2.643906939843063356e+03,-2.172090061069130570e+03,-1.569610424656198575e+03,-9.502739400384816690e+02,-3.633634545520428674e+02,2.664896451806894220e+02,9.053024850195764657e+02,1.452204921400022840e+03,1.969106465652861516e+03,2.542469127694173494e+03,3.326912209215345683e+03,4.304532133323784365e+03,4.487897324833777020e+03,3.043529489972745068e+03,9.921042290315942864e+02,-3.109685542601237103e+02,-9.544590588964151721e+02,-1.400052870071009693e+03,-1.613670626424436705e+03,-1.699856491864907866e+03,-1.926570362864609478e+03,-2.205838766022418440e+03,-2.286760095145596551e+03,-2.124340424509893182e+03,-1.773518082494374312e+03,-1.279746739494952408e+03,-7.174512485237194142e+02,-1.303548383946985609e+02,4.500173636926382414e+02,9.341392968555957168e+02,1.309803156564844130e+03,1.769435346476809627e+03,2.544152341565857569e+03,3.310922257474498565e+03,3.061221274294705836e+03,1.496953495981503693e+03,-2.553953807401945255e+02,-1.276464975794526708e+03,-1.735658532319586811e+03,-1.887918316353864157e+03,-1.803768434184324178e+03,-1.778175551658853010e+03,-1.985409575810811475e+03,-2.190943429044716595e+03,-2.115176522347826904e+03,-1.742965827680354550e+03,-1.213862004138216207e+03,-5.657206334140169020e+02,1.697172824887611569e+02,8.080061384293433093e+02,1.349157846204113184e+03,1.965091102341544683e+03,2.634196664702657927e+03,3.473846138622505805e+03,4.461967748534235398e+03,4.582413245590170845e+03,3.089911983561940815e+03,9.957543676804095867e+02,-4.191496899856325626e+02,-1.177268941137936963e+03,-1.725143791101586430e+03,-2.056878185702550581e+03,-2.192999826158378255e+03,-2.372152583263661654e+03,-2.583886302757639896e+03,-2.599124501389300804e+03,-2.349084614119975413e+03,-1.885006352873531114e+03,-1.242169154555374007e+03,-5.162469201001513284e+02,2.053192796846525425e+02,9.494916400106317269e+02,1.683248066486678681e+03,2.376259595434270523e+03,3.230876530925855604e+03,3.996469914097051969e+03,3.583492017921792012e+03,1.714980777502491264e+03,-2.354808378588507480e+02,-1.255194814885725918e+03,-1.734977188601125363e+03,-2.049532102950405715e+03,-2.095992273093696895e+03,-2.062869568173123298e+03,-2.183035946388557932e+03,-2.258515577361297801e+03,-2.068323630976510231e+03,-1.628458895223136778e+03,-1.022721343176484311e+03,-3.425943238211273183e+02,3.933087776592988689e+02,1.171772923789475044e+03,1.871942648734843033e+03,2.637632045968194689e+03,3.625681063802584504e+03,3.996702990001475882e+03,2.785770740461310197e+03,7.422607624844266638e+02,-6.745198094292803717e+02,-1.286331689916378764e+03,-1.574624630144073990e+03,-1.605434533030753300e+03,-1.517430869384707876e+03,-1.621028811078378112e+03,-1.800100910029634178e+03,-1.721929307766231204e+03,-1.346394582975741969e+03,-8.041039162769669701e+02,-1.403112140480870380e+02,6.165086993146981058e+02,1.340698357889989211e+03,2.038675270920147796e+03,2.925956287239277117e+03,3.646683740151861002e+03,3.160630145915084086e+03,1.343492516423091956e+03,-5.595962119843336495e+02,-1.664315084757336535e+03,-2.125436849947968767e+03,-2.207222060345734008e+03,-2.057671001532081391e+03,-1.973476396048426977e+03,-2.032456406710427927e+03,-1.962402243470794247e+03,-1.614737748281459744e+03,-1.016163682876435246e+03,-1.614546924821636935e+02,8.365985337829142736e+02,1.743724417180059390e+03,2.468936644956118926e+03,3.254993757649610870e+03,4.229983556061199124e+03,4.373402599336337516e+03,2.567180963666252865e+03,-1.672676079479052191e+01,-1.463768796918390308e+03,-1.970673732720761109e+03,-2.365230982218721692e+03,-2.472812511509613614e+03,-2.334708211600277082e+03,-2.329630340751659332e+03,-2.307942758862005121e+03,-2.027714130308501808e+03,-1.519568148973422467e+03,-8.255635181733520085e+02,-6.055092770445946826e+01,7.073441848083151626e+02,1.620775683667793373e+03,2.600600643388191202e+03,3.513122935869659614e+03,4.407131978987768889e+03,4.512085100618716751e+03,2.878077394729811203e+03,4.907618463712259427e+02,-1.019093045356511766e+03,-1.763082544630681241e+03,-2.375308518895900306e+03,-2.672604922897483448e+03,-2.661725692664766029e+03,-2.721275527548350510e+03,-2.796087770537857068e+03,-2.618821389766428183e+03,-2.187958760190673729e+03,-1.611367108852200772e+03,-9.456032686116518562e+02,-2.490340492602252880e+02,4.779534383712899626e+02,1.319749710531309120e+03,2.209990217142533766e+03,2.937469511139333463e+03,3.615534120384975722e+03,4.530302055111304071e+03,5.112750595298651206e+03,4.139934762895151835e+03,1.696232618548223172e+03,-5.378755518167715763e+02,-1.631185548229331062e+03,-2.143522824045305697e+03,-2.487144035494231503e+03,-2.617312569496978085e+03,-2.735608454128210269e+03,-2.900438401780389540e+03,-2.859913037230471218e+03,-2.600547062687975540e+03,-2.210511036677063657e+03,-1.565297100850073321e+03,-7.157800056183996276e+02,3.034270849370830092e+01,6.055471946011036835e+02,1.192122822633898295e+03,1.837420457012260613e+03,2.469980124791267372e+03,3.212690895744151931e+03,4.032940904224499718e+03,4.053602344329000516e+03,2.586021693157643767e+03,5.746624229620424558e+02,-7.150054929717662162e+02,-1.324986536251785310e+03,-1.675731965860329410e+03,-1.781205515409130612e+03,-1.828442780942398940e+03,-2.038078481137735935e+03,-2.201422783455383978e+03,-2.106672160376931060e+03,-1.820846250160923773e+03,-1.374504852874732933e+03,-7.611887536634903881e+02,-1.237946371111824533e+02,4.715142068073492965e+02,1.100921588749984949e+03,1.672105710862786964e+03,2.180037154619272769e+03,2.825181532710267220e+03,3.070497865978399204e+03,2.047608405160529855e+03,3.231021066296373760e+02,-8.429012438686174846e+02,-1.363531485098254507e+03,-1.684098464601044498e+03,-1.783955175743911695e+03,-1.731828123350103851e+03,-1.800305931210584504e+03,-1.896223308412955703e+03,-1.753897895454216950e+03,-1.375652650223865749e+03,-8.465659134672292794e+02,-1.888408591069346016e+02,4.565260374611763154e+02,9.773542682629096134e+02,1.518298199963414845e+03,2.214030193776004126e+03,2.933982037286714785e+03,3.591636498158075483e+03,4.419375997544959318e+03,5.256919764651252081e+03,5.046998842199567662e+03,3.324259096690400384e+03,1.315874676946636100e+03,1.975714012188951756e+02,-3.341615383007111859e+02,-8.516396227940073231e+02,-1.266302240707984311e+03,-1.551907098807812872e+03,-1.950012748043409374e+03,-2.385919546330865614e+03,-2.596775505521246487e+03,-2.635762923937842970e+03,-2.690281226586884713e+03,-2.685535709495562514e+03,-2.504360964988629348e+03,-2.280351210947400432e+03,-2.110532632124330121e+03,-1.879988566201986941e+03,-1.563782908012908365e+03,-1.274871741687624990e+03,-1.042338536225277039e+03
-1.257116671856315406e+02,8.338601925130926702e+02,1.911574277540523781e+03,3.085939918579598725e+03,3.352816045833525095e+03,1.868272716131792095e+03,-2.887506909727879929e+02,-1.651834801785572836e+03,-2.324255958638063930e+03,-2.775346446807351185e+03,-2.857430866812149361e+03,-2.785390047297093588e+03,-3.008889988353585522e+03,-3.248087639668268366e+03,-3.049539660092565100e+03,-2.547978525570119018e+03,-1.987883962157998667e+03,-1.352093787831121517e+03,-6.382747875877868182e+02,8.034364161121561665e+01,7.778953567777678018e+02,1.477502297359215845e+03,2.213820721593584494e+03,2.930558085812434001e+03,3.647167863062788911e+03,4.603080848567032263e+03,5.390061372979627777e+03,4.752145917214017572e+03,2.561939431290085395e+03,3.976030142546042043e+02,-7.757817631508701197e+02,-1.396491494552057475e+03,-1.782984466397459755e+03,-1.882259542318908188e+03,-1.999765527866770299e+03,-2.380899739723770836e+03,-2.699607075463302863e+03,-2.615435868562420637e+03,-2.230303219473443278e+03,-1.750764993538523413e+03,-1.197223796456707078e+03,-5.573274315095122802e+02,9.422459859422122008e+01,7.370297634122532600e+02,1.410774106897385309e+03,2.024580398953279200e+03,2.637429193507824948e+03,3.536252821079666319e+03,4.156972912229478425e+03,3.262377872995015423e+03,1.127467623204594020e+03,-6.011873880583922301e+02,-1.350064079770574153e+03,-1.662997207213272304e+03,-1.735646365911925841e+03,-1.631044985195809659e+03,-1.778099202507468590e+03,-2.264303179990692570e+03,-2.496401351962409535e+03,-2.125150995521909863e+03,-1.516701560201516259e+03,-9.489600450021040388e+02,-3.121867399304831565e+02,3.869779342511262712e+02,1.081111147011889670e+03,1.778119885552148389e+03,2.460033356588884544e+03,3.295987546562924763e+03,4.076233453678865317e+03,3.674969669678439459e+03,1.786714320001482974e+03,-1.900065014569096320e+02,-1.360091310733945193e+03,-2.069160253321443633e+03,-2.408429219281436417e+03,-2.335431070774779982e+03,-2.298133611942865173e+03,-2.483419330930658361e+03,-2.598924992645338534e+03,-2.448188413045701509e+03,-1.974580805283585278e+03,-1.217639447961432325e+03,-3.944075688630536547e+02,3.523839807307315368e+02,1.087258847443532886e+03,1.854808294263613334e+03,2.546000916878581847e+03,3.225856509308882323e+03,4.209406889956890154e+03,5.008076545950488253e+03,4.329729491826490630e+03,2.170966889747871846e+03,2.932385491996990368e+01,-1.264297304564607202e+03,-1.976025908747340054e+03,-2.343566963214288990e+03,-2.446678152958395003e+03,-2.535100718275270992e+03,-2.757046399913472669e+03,-2.919501097998239857e+03,-2.788343604304436212e+03,-2.392273409789556808e+03,-1.861695590597655610e+03,-1.160446092348489401e+03,-2.697651623073982705e+02,5.919164296163960444e+02,1.310156027668683691e+03,1.998867503394442565e+03,2.679703746409421910e+03,3.472124804336493526e+03,4.468581522732223675e+03,4.846797692453559648e+03,3.578049613625125403e+03,1.242443420322480506e+03,-6.155449179344177537e+02,-1.533111499740422005e+03,-1.988765607495306085e+03,-2.199337736546093765e+03,-2.256364259009275429e+03,-2.415705945637250352e+03,-2.656258415655480803e+03,-2.706307435704140062e+03,-2.463468761673425433e+03,-2.020704798910231148e+03,-1.504336228029590757e+03,-9.095008480005986939e+02,-1.399668100159729534e+02,7.242522667873971614e+02,1.504899423059600849e+03,2.161584483263008224e+03,2.849830991379975785e+03,3.737545312726534576e+03,4.261108316405461665e+03,3.335543094161101635e+03,1.171815762087454914e+03,-6.780093692711531048e+02,-1.498878085207692038e+03,-1.773726649875108933e+03,-1.827498666830769707e+03,-1.770037456345172814e+03,-1.885462471723475801e+03,-2.137517581931816494e+03,-2.164755362643609715e+03,-1.901385219412141169e+03,-1.472764420163548266e+03,-8.012662075191381064e+02,8.624924541428293878e+01,9.165883433399496880e+02,1.606901687687380218e+03,2.232374013905095126e+03,2.899087431222880696e+03,3.776835675615441687e+03,4.347246843095406803e+03,3.481710406177621735e+03,1.309136807642493068e+03,-6.320906248846895323e+02,-1.599696777396584821e+03,-2.073089059349879335e+03,-2.315908263750274273e+03,-2.322062170915471143e+03,-2.382598577932049920e+03,-2.593252676645088286e+03,-2.657688820881126503e+03,-2.415134988923921355e+03,-1.947584937981970597e+03,-1.379639720107559469e+03,-7.551032102606927765e+02,4.101237760613400951e+01,1.031943689875238988e+03,1.954300478819080126e+03,2.627360776777240062e+03,3.295075547511578861e+03,4.249166470971090348e+03,4.929581704219474886e+03,4.140756672144865661e+03,1.908640568109253536e+03,-2.100108021329053827e+02,-1.334349328478632742e+03,-1.935885967749668680e+03,-2.325997283140674881e+03,-2.432348521520978466e+03,-2.510216358719335403e+03,-2.727164908792688948e+03,-2.835637185205130663e+03,-2.657621397503345634e+03,-2.248199404781000339e+03,-1.730341474314366451e+03,-1.138357096663696893e+03,-3.613640761346293857e+02,5.365140115627699515e+02,1.318764967230564253e+03,1.975521697677942257e+03,2.599484237110739741e+03,3.340894064322024406e+03,4.296160482518317622e+03,4.689217978507879707e+03,3.542474014472806175e+03,1.426018066282324753e+03,-3.353288920099651023e+02,-1.401625662030390231e+03,-1.993166706246549438e+03,-2.179195508934162717e+03,-2.200370939296868983e+03,-2.361533480832160421e+03,-2.592253492972972708e+03,-2.674648256862469680e+03,-2.521236845967047884e+03,-2.055038898577266991e+03,-1.343058342053117258e+03,-6.330249260946486629e+02,2.502167168131904873e+01,7.160123738592858444e+02,1.376532193761293456e+03,1.940970395820882231e+03,2.575588765485925251e+03,3.446275436296144107e+03,3.943327123043655774e+03,3.047926065034521798e+03,1.104131426561148601e+03,-4.479367928623613579e+02,-1.140139667547360204e+03,-1.422800402298975314e+03,-1.472067164669617569e+03,-1.405613438513832989e+03,-1.513524660585919037e+03,-1.757749621978833375e+03,-1.837140608896454069e+03,-1.636384270005829649e+03,-1.220535664450556624e+03,-6.693696436177726810e+02,-4.854765713681001671e+01,6.170188290767132457e+02,1.272319024812074531e+03,1.849003099323340621e+03,2.516189109692193142e+03,3.253128579992620871e+03,3.195613026124718090e+03,1.767807391683907099e+03,-7.582370781321131403e+01,-1.226690913526172153e+03,-1.748990367807451094e+03,-1.960557092809322967e+03,-1.891331995048028830e+03,-1.795229851133586862e+03,-1.907521708626187092e+03,-2.026229231905358120e+03,-1.893299704298809729e+03,-1.501591434258953768e+03,-9.198692772566841995e+02,-2.390607784746591165e+02,4.430595454920738803e+02,1.192916220213330234e+03,2.021398468753451652e+03,2.717687113982608935e+03,3.332235644279400276e+03,3.920691534722726374e+03,3.740279423733505155e+03,2.254623809294953844e+03,3.790862916372248037e+02,-8.378475703545591387e+02,-1.504061424333032619e+03,-1.932827928104538614e+03,-2.070506406268316368e+03,-2.094931583162422157e+03,-2.262930623458424634e+03,-2.425519492042140428e+03,-2.333875785250125318e+03,-1.993059266015189451e+03,-1.501352155894513317e+03,-8.795995812460023444e+02,-1.674363288876728575e+02,5.367224888760941894e+02,1.217043176571148706e+03,1.892367921471211503e+03,2.542443744170856917e+03,3.295760026844820459e+03,4.016769766180140323e+03,3.779228943723194789e+03,2.126398850636930547e+03,1.707865219350379107e+02,-1.014749965061432476e+03,-1.630178068947353722e+03,-2.008315736418025836e+03,-2.107931879973822561e+03,-2.151550326448939813e+03,-2.353502250696758892e+03,-2.486832061106288620e+03,-2.341041345679691858e+03,-1.984673280111387385e+03,-1.499417477373988277e+03,-9.150302220398410782e+02,-2.589265569265814406e+02,4.832032218160288721e+02,1.269936684947081631e+03,1.947303882371611053e+03,2.534997550679930100e+03,3.337271774389415441e+03,4.148814631261268005e+03,3.867562185104866785e+03,2.107697782847519647e+03,1.570302128587915718e+02,-9.179280559365527097e+02,-1.403104154098306253e+03,-1.646642959230959605e+03,-1.639081529150336792e+03,-1.648447016722735270e+03,-1.867766944772259421e+03,-2.041847544457360982e+03,-1.934378292192240906e+03,-1.578338434151919500e+03,-1.081558099705887571e+03,-5.118733205715647046e+02,1.166363142990573465e+02,7.971154657884978860e+02,1.433667433218632596e+03,2.014791459213681719e+03,2.760298746053620562e+03,3.409871192122911907e+03,2.939893954234576540e+03,1.149056676203072584e+03,-6.721080590782870559e+02,-1.599249996662114881e+03,-1.907540954117472438e+03,-1.940675793696008441e+03,-1.827445689952936164e+03,-1.839454489851515518e+03,-2.023461628501528594e+03,-2.076479663670883838e+03,-1.831793973919862765e+03,-1.382256584506510080e+03,-7.899451999726142049e+02,-2.962539112460035540e+01,8.336118752886811762e+02,1.667555893127341051e+03,2.387061975202079338e+03,3.043876401871326834e+03,3.898565612517536010e+03,4.735049414526684814e+03,4.390551999924090524e+03,2.439807351676376129e+03,2.875625646411126581e+02,-9.759307465279855478e+02,-1.809019790374999957e+03,-2.495103868957870418e+03,-2.712048352435143443e+03,-2.717027439343650713e+03,-2.914741237099811769e+03,-3.066369060231490039e+03,-2.925538569476701923e+03,-2.570838929439733874e+03,-1.976106273788164799e+03,-1.132879603551765513e+03,-2.743705754586704870e+02,4.546929125917741885e+02,1.145313990720703714e+03,1.884058419846479410e+03,2.609919792928545121e+03,3.346018790003474351e+03,4.304729100205970099e+03,5.054765897723038506e+03,4.419697245067888616e+03,2.308970066350111665e+03,1.185064706168674320e+02,-1.259330860571001267e+03,-2.026800021194679402e+03,-2.419429266604786335e+03,-2.551247404393691340e+03,-2.702178898556148397e+03,-2.967759081726922432e+03,-3.136866865094159493e+03,-3.033167766019606916e+03,-2.622556687571475777e+03,-2.021805488624007694e+03,-1.379335762093661742e+03,-6.130843009986065226e+02,2.933451209239887021e+02,1.080515821861417862e+03,1.724922412778038733e+03,2.415601401401012481e+03,3.145604378345699388e+03,4.011194391241776430e+03,4.939857736722819027e+03,4.920722916279203673e+03,3.226937060938367267e+03,9.021348853319148020e+02,-6.977218124853586687e+02,-1.537923025486657934e+03,-2.010169048018463627e+03,-2.155119381451304889e+03,-2.195044415293050861e+03,-2.433242173535870279e+03,-2.708159918231835036e+03,-2.715486050128614352e+03,-2.481507277988488568e+03,-2.102698402551243817e+03,-1.477975193191217613e+03,-6.485668740030002937e+02,8.900409605111155997e+01,6.641832044088946532e+02,1.257049249398477059e+03,1.850484426751431329e+03,2.439232049605597695e+03,3.268348893420478362e+03,3.914038651677343296e+03,3.220625847969575716e+03,1.280069736986763928e+03,-4.480037528076666149e+02,-1.409050366925188882e+03,-1.934524036383692419e+03,-1.939849945988809623e+03,-1.647644024365744826e+03,-1.762079530805747027e+03,-2.163171250365868218e+03,-2.191288035410749217e+03,-1.821645585689258269e+03,-1.354271042719280558e+03,-7.947932680539847752e+02,-1.329873398844795247e+02,5.217336531873062313e+02,1.200536701698756588e+03,1.923561729165310226e+03,2.563008830625358314e+03,3.264816930041560227e+03,4.120748252328038689e+03,4.218959776851033894e+03,2.709983904320539295e+03,5.326070815274567849e+02,-9.020958310984545960e+02,-1.602922805006325689e+03,-2.064116091358898757e+03,-2.248057181447248695e+03,-2.267973734064988093e+03,-2.455779725763487022e+03,-2.691776757997632103e+03,-2.652507234590501412e+03,-2.333839744488176621e+03,-1.859674566027450282e+03,-1.240906992994551501e+03,-5.225263351213461647e+02,1.818755856848433723e+02,8.807476053310894031e+02,1.643398915752434277e+03,2.372309162388615277e+03,3.056254795995435870e+03,3.948526871511767240e+03,4.688844331314303417e+03,4.113367244556592595e+03,2.102413708500684152e+03,1.138403590000039003e+02,-9.724429524151903479e+02,-1.561774904922805490e+03,-1.929617881440477277e+03,-2.049232935253899086e+03,-2.187057733216700399e+03,-2.465506102532269324e+03,-2.595567856773041058e+03,-2.395984453245924215e+03,-1.988174724729454510e+03,-1.495513139402703928e+03,-9.128959099057972253e+02,-2.614095136734343896e+02,3.767271611677895180e+02,1.018043331241115652e+03,1.706635192067727075e+03,2.347565566170530019e+03,3.014718962625846416e+03,3.902183309861768976e+03,4.364127554796508775e+03,3.311087039418710901e+03,1.121762579712591560e+03,-7.069295170259957786e+02,-1.690356262987338141e+03,-2.271037436166846874e+03,-2.574310707953600740e+03,-2.652745321105909170e+03,-2.837647820543904345e+03,-3.182308995260082156e+03,-3.350661204941709002e+03,-3.158357602817042789e+03,-2.740289223390274401e+03,-2.232717598709168669e+03,-1.624181207796838180e+03,-9.317648433324926600e+02,-2.471166692190164440e+02,4.468054258016721860e+02,1.210420862548394098e+03,1.956993724604441013e+03,2.754848483486151963e+03,3.793157599291051156e+03,4.428753813991032075e+03,3.603326832203664708e+03,1.720844348701312811e+03,2.349222477033692940e+02,-3.629675911633554506e+02,-4.161211080743642015e+02,-1.260715096984644106e+02,2.129356790071152545e+02,2.879953846966479887e+02,3.249924963945996979e+02,6.254947187128354926e+02
-6.886297612459657103e+00,3.449546313715080714e+02,8.058700443076827469e+02,1.323592684995132913e+03,1.871073702957449086e+03,2.421315267831001620e+03,2.884025703315617648e+03,3.435901354991941844e+03,4.096981416066432757e+03,3.931240121407776769e+03,2.264558300496125867e+03,1.429310028137027757e+02,-1.166786772310555762e+03,-1.748099024247818988e+03,-1.994091886435756351e+03,-1.930294327162234367e+03,-1.856103729707454022e+03,-2.051872753658001784e+03,-2.240394141425370435e+03,-2.120274870130056570e+03,-1.741552270995024173e+03,-1.194307348300323611e+03,-5.162827316482579363e+02,2.176386668680048615e+02,1.009737480563905024e+03,1.836640832825956750e+03,2.569078365082046730e+03,3.376661819544443915e+03,4.302168297575050929e+03,4.303572540262265647e+03,2.613702128188469487e+03,4.523826249509946820e+02,-8.690091476298284761e+02,-1.719784870487447279e+03,-2.434277637103546112e+03,-2.626402587252810918e+03,-2.564137199861140289e+03,-2.728472697176591737e+03,-2.827112698062966047e+03,-2.551892195265912505e+03,-2.090481440061088506e+03,-1.520589502907596625e+03,-6.745627079485984723e+02,3.472900036637970516e+02,1.244838762560847954e+03,1.973506621378436193e+03,2.726267861842990897e+03,3.677204380774408946e+03,4.406751746773201376e+03,3.815587799062096110e+03,1.762473793415917044e+03,-2.928440891002489366e+02,-1.381257639887496680e+03,-1.908369509093979559e+03,-2.197974904875097764e+03,-2.206814532083394624e+03,-2.202595011614233954e+03,-2.335915827893816186e+03,-2.332318850965310503e+03,-2.032984456206803316e+03,-1.523927191096832757e+03,-8.728053788157777717e+02,-1.354459647405595319e+02,6.231189992242370863e+02,1.383389244517516545e+03,2.187939577076309888e+03,3.210551720054969792e+03,4.286051683739288819e+03,4.350033288043679931e+03,2.754448778123303782e+03,6.379473378381640032e+02,-7.233127330102634005e+02,-1.443546328546747645e+03,-1.857188115602786183e+03,-1.915919931200854990e+03,-1.882442062097155258e+03,-2.023983031274596669e+03,-2.116706195492134611e+03,-1.919131303154601710e+03,-1.478439300988979539e+03,-8.970957738581885224e+02,-2.201639846623198196e+02,5.082468152874415637e+02,1.178385464137975532e+03,1.785662339584642268e+03,2.566179189665875128e+03,3.249256799017022786e+03,2.810094175542098128e+03,1.105919171702222684e+03,-5.969893743427014670e+02,-1.504949731370912787e+03,-1.875642047617442131e+03,-1.898941009735634452e+03,-1.709668269917861153e+03,-1.683955600016280869e+03,-1.827072473779827760e+03,-1.783439459757682016e+03,-1.437038443096232641e+03,-8.836561310277015764e+02,-2.073801445263465553e+02,5.555912958142594107e+02,1.363248527064485415e+03,2.037939673309273076e+03,2.699858166771845390e+03,3.753626426485031971e+03,4.481699902710159222e+03,3.521398983933302134e+03,1.340299348495974300e+03,-4.095424948894983572e+02,-1.379876856467230482e+03,-2.042907361750619430e+03,-2.352468738748389114e+03,-2.333779845363045752e+03,-2.377217172548153485e+03,-2.477207902493608344e+03,-2.332633511878804711e+03,-1.932211962876523103e+03,-1.377832261303219866e+03,-6.823332058765126931e+02,6.964320619738975893e+01,8.315100383037165557e+02,1.603928099817837847e+03,2.260516743349262015e+03,3.003406138242942234e+03,4.096121982601714080e+03,4.523672117311709371e+03,3.140740149292407295e+03,9.221080875102002210e+02,-6.034458926078566492e+02,-1.496621855300194966e+03,-2.173506250747454487e+03,-2.461303609871967637e+03,-2.486584764342921517e+03,-2.610914849171096648e+03,-2.738349871574925601e+03,-2.630674149538955135e+03,-2.304756257252258820e+03,-1.821352315961544264e+03,-1.200989086219778528e+03,-5.042962168542529184e+02,2.027295916117807337e+02,8.579035430337164598e+02,1.503057442974068408e+03,2.262717489373395438e+03,3.145779878261238991e+03,4.145661349127395624e+03,4.880516761912187576e+03,4.293363086592923537e+03,2.248239008331157947e+03,2.266622067511054865e+02,-9.065799277803965879e+02,-1.631433111424485105e+03,-2.139542484711860652e+03,-2.298708689853308442e+03,-2.413987387429961927e+03,-2.640810118151689949e+03,-2.707947126816513446e+03,-2.504478125649171943e+03,-2.124668351562701446e+03,-1.605829872557842918e+03,-1.030675357213186999e+03,-4.740768492734133588e+02,1.932732696370472922e+02,1.019846234878333462e+03,1.745709154823175595e+03,2.288685761263486711e+03,3.021466701026130977e+03,3.874188155439780985e+03,3.790944217445319737e+03,2.317056144736046917e+03,5.647702196468903821e+02,-6.222900451466134655e+02,-1.450050221078500272e+03,-1.847348957389614043e+03,-1.685792542394044176e+03,-1.549278513461410739e+03,-1.754482926000153384e+03,-1.887035281037318555e+03,-1.718631653935121676e+03,-1.394363614768782554e+03,-9.504159141814523082e+02,-3.940031688924311197e+02,1.720866154693101180e+02,7.581612309960819402e+02,1.368610511367163781e+03,1.924932061891962803e+03,2.593464605118309919e+03,3.301168789262931568e+03,3.146586351365554947e+03,1.709595912262145930e+03,1.186750500275888953e+01,-1.045629059060528334e+03,-1.634335735004407752e+03,-1.964544442026505294e+03,-2.009057761806460348e+03,-2.011536669418257588e+03,-2.138912780385715450e+03,-2.193155453603925707e+03,-2.007899971802461096e+03,-1.607431946941523620e+03,-1.069138124471323636e+03,-4.655827251805180822e+02,1.656723116166373302e+02,8.092652289367576941e+02,1.423211617076055063e+03,1.929728838699201788e+03,2.392734222103367756e+03,3.117652371805985240e+03,3.952491928171402833e+03,3.885136738864912331e+03,2.471207974754185670e+03,7.233918238187902716e+02,-4.602546116701553274e+02,-1.246069525562861145e+03,-1.822795902239703992e+03,-2.055407640507637552e+03,-2.116655456609219527e+03,-2.295331102231188197e+03,-2.484932663523075462e+03,-2.447172053053480340e+03,-2.174328307356454388e+03,-1.756139603021435732e+03,-1.213940649903652456e+03,-5.705487900929890657e+02,3.911392446593168870e+01,4.988086114069103587e+02,9.589713923669700080e+02,1.598843055638276383e+03,2.273164023232577165e+03,2.939756177745719924e+03,3.808446481305848465e+03,4.334849340120501438e+03,3.423942783169962695e+03,1.363992412517158527e+03,-3.506242975294564985e+02,-1.225227510501954839e+03,-1.754779288726118239e+03,-2.049431808963182448e+03,-2.110903369374529120e+03,-2.256667149112733568e+03,-2.511278947899079867e+03,-2.577335887152256419e+03,-2.381687902578419198e+03,-2.017125235798387394e+03,-1.487951141324273749e+03,-8.742564381807856080e+02,-3.484930142452121231e+02,1.157110887955368526e+02,6.917172047206690877e+02,1.391426042617925759e+03,2.050887475108225772e+03,2.699358323926642242e+03,3.579543676292585133e+03,4.199271736857164797e+03,3.396150348233638397e+03,1.357868493638212840e+03,-2.942019761257718073e+02,-9.671422955777721882e+02,-1.317392262285566630e+03,-1.534804778934770638e+03,-1.494995079129183750e+03,-1.515107379590531309e+03,-1.765703953709220286e+03,-1.944217452602784306e+03,-1.820587786732837003e+03,-1.476847131454941291e+03,-1.072758753489700212e+03,-6.503699482833194452e+02,-1.556362443323291700e+02,4.646505598658774829e+02,1.153688114388429767e+03,1.734541790992261667e+03,2.359580969991895017e+03,3.282549969374381362e+03,3.599861641929070629e+03,2.217704645715025890e+03,1.049804238060318227e+02,-1.136875400787001581e+03,-1.596956461615036915e+03,-1.863211784830809393e+03,-1.863329238272340717e+03,-1.726121052055295877e+03,-1.817517688389851173e+03,-2.031132847033326016e+03,-1.999912874707641095e+03,-1.674877210679203017e+03,-1.304023453613722950e+03,-9.203319128549310335e+02,-3.227915960703944620e+02,4.293175356118034642e+02,1.160900275911690187e+03,1.883325895940769897e+03,2.576953119961879565e+03,3.357075068291012485e+03,4.313480773643533212e+03,4.544564310725680116e+03,3.040868453387072350e+03,6.872014756780961307e+02,-8.473503392467690674e+02,-1.461116054922933927e+03,-1.868816026341719862e+03,-2.087954219938365895e+03,-2.058013692428512059e+03,-2.122667741942747853e+03,-2.334011673445416363e+03,-2.390317927457243059e+03,-2.141623998565204147e+03,-1.658612503641543753e+03,-1.104135832927151114e+03,-5.869522250975181805e+02,-1.472646299237271705e+01,7.325394783491232147e+02,1.505478779150516402e+03,2.140423411088344892e+03,2.965096686376657544e+03,4.038042704738809789e+03,4.124159883396314399e+03,2.405188173357044434e+03,2.492486540902607146e+02,-9.350907664211257497e+02,-1.501528664593614849e+03,-1.906619210521245805e+03,-1.945774845249414057e+03,-1.823766168704334859e+03,-1.934882855736036390e+03,-2.111633755409467085e+03,-2.062277912746492802e+03,-1.793132302160007612e+03,-1.322912270247821880e+03,-6.918186277631623398e+02,-1.173546121423149771e+02,4.037559079636279762e+02,1.091269662254579544e+03,1.808005221201563927e+03,2.457757391156810627e+03,3.340063106785782566e+03,3.932308055567718384e+03,3.043190603999932591e+03,1.041313782362444272e+03,-5.151406779545891368e+02,-1.226744313237947836e+03,-1.559212640803362092e+03,-1.577594815151965349e+03,-1.394776430129929395e+03,-1.401663491424202221e+03,-1.612290468965695254e+03,-1.702411888537643108e+03,-1.533786464059342279e+03,-1.149107967401361293e+03,-6.018557892084591003e+02,-1.958132823992895055e+01,5.249122901270561670e+02,1.081476164409594048e+03,1.673433399266933520e+03,2.452945611861718135e+03,3.264734188265707417e+03,3.063392855698617950e+03,1.416283946052548799e+03,-4.317413228817505342e+02,-1.469614638400572403e+03,-1.924285048677009854e+03,-2.028186074916129883e+03,-1.823593233183464463e+03,-1.680921738754076614e+03,-1.814204988012389094e+03,-1.946711727755786114e+03,-1.793846194822913958e+03,-1.378350312653688206e+03,-8.257720928300884680e+02,-1.457297700018373234e+02,6.396426964509284971e+02,1.369723866122984646e+03,1.960983315677196970e+03,2.574878395019304207e+03,3.464388561249464146e+03,4.366056624554867085e+03,4.191510406008850623e+03,2.454021537555503983e+03,3.506677755852996938e+02,-9.686430643441931352e+02,-1.695380288772759286e+03,-2.144459078790790954e+03,-2.229526354527749845e+03,-2.197810230227742068e+03,-2.356562208258922965e+03,-2.513004608276547515e+03,-2.398851400990615730e+03,-2.026405079258164506e+03,-1.464381691628153931e+03,-7.538178085618302475e+02,4.160003104780560079e+01,8.877540559212961853e+02,1.681461087537029471e+03,2.360798590784751013e+03,3.258253745494782834e+03,4.348319612577530279e+03,4.396571504488147184e+03,2.633431712898012847e+03,3.403977194916484450e+02,-1.056313128872799552e+03,-1.742600456975178986e+03,-2.201190879013702215e+03,-2.301697797132541837e+03,-2.234268334133892495e+03,-2.495930380674730714e+03,-2.861532603975624170e+03,-2.700478023152095830e+03,-2.067379924181347633e+03,-1.417373990906791278e+03,-7.680278434461736197e+02,4.962223882791363394e+00,7.994288494832640026e+02,1.595648550548072308e+03,2.373759677607883077e+03,3.097524326234204636e+03,4.025982978399320018e+03,4.822534665600317567e+03,4.195955711910742139e+03,2.060597687776114981e+03,1.703516281093777707e+01,-1.189516745311059594e+03,-1.979604787896015978e+03,-2.351583565546249702e+03,-2.305986428600236650e+03,-2.339518941739131606e+03,-2.555748451151192512e+03,-2.661069712476611585e+03,-2.533801600201631118e+03,-2.082156255045641501e+03,-1.308136705810538842e+03,-5.231954579411438999e+02,1.104008377766315334e+02,8.083213065764972498e+02,1.626283883830991726e+03,2.327485707357586762e+03,3.009838498933988376e+03,3.938662751752707209e+03,4.374263760936350081e+03,3.188034323389978454e+03,9.710101890671069214e+02,-7.168306403594134508e+02,-1.628685770099810497e+03,-2.180318232886617807e+03,-2.290014055163603643e+03,-2.167229450713522965e+03,-2.296133478110069518e+03,-2.592509993365620176e+03,-2.661196158282839406e+03,-2.301060162311129261e+03,-1.615818026521564889e+03,-8.858431215938275045e+02,-2.028340082491762928e+02,5.184677328529538727e+02,1.273274214382715854e+03,1.976843517240818755e+03,2.667069805491778425e+03,3.582505026248997183e+03,4.407772410594340727e+03,3.950100908258778418e+03,1.964521071151948036e+03,-1.174013524976112990e+02,-1.392672572780506925e+03,-2.182397720087929883e+03,-2.577834316699051215e+03,-2.522272898754793005e+03,-2.453238161943142586e+03,-2.579254381795214613e+03,-2.574193604812714966e+03,-2.289547156495719719e+03,-1.826535600254475412e+03,-1.073152504042589499e+03,2.258250511964922680e+01,1.105968587203837160e+03,1.948401127595943763e+03,2.755523294197874293e+03,3.619592419169258392e+03,4.440328231486595541e+03,5.413848122346918899e+03,6.371953935653641565e+03,6.110139903932138623e+03,4.160430570834998434e+03,1.896925936595222083e+03,3.697756128603455181e+02,-6.870866951569148569e+02,-1.398208880923685911e+03,-1.685838373137396047e+03,-1.951455759775174101e+03,-2.456721876675339900e+03,-2.940744039117066222e+03,-3.163743944163383276e+03,-3.198227807134614068e+03,-3.127631886687469432e+03,-2.853111147160314431e+03,-2.417738932758774808e+03,-2.088688641692536294e+03,-1.928041317733160668e+03,-1.800219305626276764e+03,-1.673712796350307826e+03,-1.509281982152923092e+03,-1.240265937111287030e+03
-2.526967730560736527e+02,5.527906931866681361e+02,-5.310142599703998485e+02,-2.618676213113902122e+03,-4.059193924290888390e+03,-4.700824356979729600e+03,-4.934738918673867374e+03,-4.779481415235992245e+03,-4.428208222106430185e+03,-4.237657888334917516e+03,-4.184271183305421800e+03,-3.958755024879979828e+03,-3.391121213541888665e+03,-2.625799708212612131e+03,-1.821302190510901482e+03,-8.555912474081078471e+02,2.440955181210483715e+02,1.173806931103953048e+03,1.943782615218089404e+03,2.716018488637730115e+03,3.484003420474535687e+03,4.416673636439392794e+03,5.290535003637832233e+03,4.989393624447038746e+03,3.118974590052418534e+03,9.118838389977386214e+02,-5.059355057138481015e+02,-1.160382012270690211e+03,-1.358725423410123994e+03,-1.299817320123449008e+03,-1.337992096989976744e+03,-1.618606266489618747e+03,-1.845130729560446298e+03,-1.821145481644866777e+03,-1.565071847223737677e+03,-9.903792325947835025e+02,-1.840484999380597628e+02,5.515698416869323637e+02,1.203844847009414025e+03,1.854432587751081883e+03,2.473354221749142653e+03,3.258685002920424267e+03,3.978618361142273443e+03,3.504193728504065348e+03,1.515157760624041885e+03,-6.486674366533700322e+02,-1.901387041271248791e+03,-2.417124188869472164e+03,-2.529498519910603136e+03,-2.380010032467838300e+03,-2.304370501909464110e+03,-2.414901800821385677e+03,-2.427912210962094832e+03,-2.200579436818597969e+03,-1.699041720732035174e+03,-8.291302762316239523e+02,2.133572812911222059e+02,1.131584834039579164e+03,1.925124393263140064e+03,2.665997129493639477e+03,3.528441745520503446e+03,4.531389415987036955e+03,4.718499226595558866e+03,3.171641762359670793e+03,7.476723622844976944e+02,-1.034495167647291055e+03,-1.936365405627833070e+03,-2.417416867347036259e+03,-2.560548134698816284e+03,-2.500432925042203806e+03,-2.558652403464372583e+03,-2.660643087052123064e+03,-2.539457407602792500e+03,-2.169487165324275793e+03,-1.594732826902959005e+03,-8.856098668178024127e+02,-1.269422042824802475e+02,8.001361188379346459e+02,1.858955805529354620e+03,2.692356462428117538e+03,3.443604507778039988e+03,4.416866359011419263e+03,4.627107113237977501e+03,2.965145929380917096e+03,4.711380629346949149e+02,-1.141784984531423106e+03,-1.861316511433918549e+03,-2.289643403672769637e+03,-2.398192636368751664e+03,-2.310494009708695103e+03,-2.378670159317363414e+03,-2.496740127135158673e+03,-2.384210829586105319e+03,-2.032863616866912935e+03,-1.481427323094039366e+03,-7.396947655624946947e+02,7.820413795312651928e+01,9.721568709258581293e+02,1.950846985323603349e+03,2.762161780815524253e+03,3.486344049740621358e+03,4.409997515016139914e+03,4.660136266447242633e+03,3.093216337219270372e+03,6.303347046200949535e+02,-9.704570200292689606e+02,-1.626584545324379860e+03,-1.985939449537388555e+03,-2.058127829064892467e+03,-1.962938486631438991e+03,-2.053196447767813879e+03,-2.217120435221627758e+03,-2.156065871861584128e+03,-1.830446357288677973e+03,-1.307026397336214814e+03,-6.852726417805276924e+02,-2.888590371555272895e+01,7.512280441152826143e+02,1.580480878542488426e+03,2.333579362134139501e+03,3.202514118576267720e+03,3.714338229958437296e+03,2.688636153864362768e+03,4.768279638135030609e+02,-1.212560653967944745e+03,-1.885635641574974898e+03,-2.087128881086944602e+03,-1.973963902626584513e+03,-1.729757519314517822e+03,-1.727016670805626518e+03,-1.877109340738960100e+03,-1.811113280386082579e+03,-1.402025182241920220e+03,-8.219089714122986834e+02,-1.828499794251609387e+02,7.254621050169264436e+02,1.870497812219528669e+03,2.759377394677995653e+03,3.454748635871510032e+03,4.378260281934619343e+03,4.695474979792092199e+03,3.195406692396861672e+03,7.041355465617666596e+02,-1.027634586840818201e+03,-1.841683858215811824e+03,-2.341406769281009474e+03,-2.499659984627575795e+03,-2.405114294762972804e+03,-2.464262971197285879e+03,-2.598908190089490745e+03,-2.457611530296960154e+03,-2.039410048772244636e+03,-1.476526946227168537e+03,-7.610100155431464373e+02,1.930401565456645585e+01,7.870590212335956721e+02,1.675351268894339682e+03,2.632943239305348470e+03,3.566320063425946501e+03,4.519622551401738747e+03,4.677589180097288590e+03,3.040596034859301199e+03,5.744600287600067077e+02,-1.049048319834872927e+03,-1.854320054330325547e+03,-2.416864978976443126e+03,-2.605022487146686672e+03,-2.534736284316525143e+03,-2.608036743516177467e+03,-2.719214039461599441e+03,-2.567500576814595661e+03,-2.138720465254732972e+03,-1.547050617526620726e+03,-8.356531966354016276e+02,-4.019409750828083361e+01,7.811728859862432728e+02,1.663845743188858478e+03,2.573522306769179067e+03,3.443975344014598249e+03,4.404890890823415248e+03,4.901062175413271689e+03,3.736821653213499303e+03,1.318554731252855618e+03,-5.672703093254943951e+02,-1.482855407824612939e+03,-2.075083354452141975e+03,-2.344359178783819061e+03,-2.262165081133319291e+03,-2.294015103864256616e+03,-2.476746692418288148e+03,-2.437274284610777613e+03,-2.140475330617278360e+03,-1.711233027331401445e+03,-1.115074854978402072e+03,-4.387584801988001573e+02,2.068077749201435154e+02,9.796600378297260932e+02,1.855839428431069791e+03,2.601200249095456002e+03,3.386147543044564827e+03,4.072107608768718819e+03,3.576496954497949446e+03,1.610206002539022847e+03,-4.250349155306861348e+02,-1.472443568893563906e+03,-1.821254339443089521e+03,-1.857671197731210214e+03,-1.728029604858091034e+03,-1.732801366148636589e+03,-1.914345132192928986e+03,-1.946983205776043178e+03,-1.669005910142204812e+03,-1.235020829430829735e+03,-7.074117360793730995e+02,1.382296560775723151e+02,1.226675320994677577e+03,2.060050454830746276e+03,2.661510683158108804e+03,3.477893451743962032e+03,4.043729883148679164e+03,3.229860008273893072e+03,1.135772658342887553e+03,-7.890212797176973254e+02,-1.756646210197469145e+03,-2.156135208652079655e+03,-2.276857493117383456e+03,-2.177080388388801111e+03,-2.170293829056302002e+03,-2.323001887461888600e+03,-2.300223322429959808e+03,-2.008836935804263931e+03,-1.550928863843149657e+03,-8.203481291996955633e+02,1.344881067397437846e+02,9.921027088693676887e+02,1.691035187855701906e+03,2.342125388041362385e+03,3.033083238470298056e+03,3.936238853725012177e+03,4.600833103431921700e+03,3.943411262564919980e+03,1.966567463533411683e+03,-5.391794791343625093e+01,-1.379882013309174454e+03,-2.161189540976643912e+03,-2.517927871409985073e+03,-2.565559201419550845e+03,-2.614583400906677525e+03,-2.751984656342480775e+03,-2.816588828077402923e+03,-2.656484361571748195e+03,-2.137418731946401294e+03,-1.366075027230760725e+03,-6.272569741944157613e+02,8.882891605092663667e+01,8.926802334973115194e+02,1.681558423165753993e+03,2.353286276331947192e+03,2.994070291168015046e+03,3.830765037094481158e+03,4.552166308454110549e+03,4.060485300640618334e+03,2.125843023172116318e+03,1.064039406822238902e+02,-1.047329091184381696e+03,-1.670319980559946771e+03,-2.055508056149337790e+03,-2.149039290993042414e+03,-2.175043425103305708e+03,-2.335980284373481027e+03,-2.460567045315694941e+03,-2.354161436119938571e+03,-2.018391751736678771e+03,-1.543688197093050121e+03,-9.923859935139258823e+02,-3.552221823169039112e+02,3.238573904353909825e+02,9.475567236521187624e+02,1.549382956993492371e+03,2.180763498171307674e+03,2.835824683300407742e+03,3.472597951707060929e+03,3.550026869671740315e+03,2.388092052252806297e+03,5.366628248527420055e+02,-7.675305539721617833e+02,-1.307578331431209335e+03,-1.487634221611311204e+03,-1.413238997239688388e+03,-1.307745382356981736e+03,-1.464283491051033479e+03,-1.692991355021851859e+03,-1.670023742205986764e+03,-1.401151317456607330e+03,-9.910353355342069790e+02,-4.135289359044265325e+02,3.174129504348292130e+02,9.812632897008483042e+02,1.399342878720713998e+03,1.840314509742840983e+03,2.565636864524890370e+03,2.921908540586095569e+03,2.043385436345218068e+03,3.371519414337158196e+02,-1.045763141158504823e+03,-1.699229998699143380e+03,-1.872875943905253735e+03,-1.746310052881800402e+03,-1.548254263536480721e+03,-1.571285351126287196e+03,-1.719840285506465989e+03,-1.687469310584270488e+03,-1.398992444543976717e+03,-8.766435108567227417e+02,-2.078360597258596272e+02,3.843868632682657562e+02,9.332772335553420362e+02,1.619328463418839192e+03,2.330510620775929510e+03,3.097778063425576420e+03,3.935966127565861370e+03,3.972684418027418360e+03,2.544588671608081313e+03,5.679964691308591682e+02,-7.996114437676543503e+02,-1.527459130597108924e+03,-1.925431764341357848e+03,-2.015926718556699598e+03,-1.969418795631107059e+03,-2.054655493991401727e+03,-2.189738148029819513e+03,-2.130544245255094211e+03,-1.804543986248490000e+03,-1.276476625082430246e+03,-6.585343973207077397e+02,5.676633012803546308e+01,9.179663500650816559e+02,1.678138656173617619e+03,2.235905699391418239e+03,2.996278875762646749e+03,3.783210897379143262e+03,3.482092176007123271e+03,1.769743909292793660e+03,-1.882736571154291596e+02,-1.402387130977154811e+03,-1.960246351234885196e+03,-2.133523974337384516e+03,-2.032557502003914578e+03,-1.964110776985702614e+03,-2.110627225708168226e+03,-2.227400975577107602e+03,-2.057688148230044590e+03,-1.616772970381098503e+03,-1.013777924757543133e+03,-3.165445520624007258e+02,4.166417088221464837e+02,1.154526199566251307e+03,1.903664269534257073e+03,2.624285893320125069e+03,3.325810787209742557e+03,3.961252327027578758e+03,3.864697597139071149e+03,2.391263814364083828e+03,3.145488162330577211e+02,-1.083113658269101052e+03,-1.681243014039672744e+03,-1.883412231508990772e+03,-1.814348268876638031e+03,-1.751711470893415708e+03,-1.928812696480624254e+03,-2.101554462247172523e+03,-2.004531665729723954e+03,-1.664467127792762540e+03,-1.150912343459753629e+03,-5.039093891419963143e+02,2.317679534676525464e+02,1.020410661630262439e+03,1.750309629493713373e+03,2.471673370896307006e+03,3.288031313560484705e+03,3.453122917186437917e+03,2.091717572007106355e+03,-2.148770377595496939e+00,-1.376414707695479137e+03,-1.874727499639312555e+03,-1.952517062950533727e+03,-1.747241046933279222e+03,-1.547377035630030832e+03,-1.643741391032858928e+03,-1.806696983301208775e+03,-1.691603934778325083e+03,-1.277469280848574726e+03,-6.929368705847480214e+02,4.149491463250853940e+00,8.145726419735615309e+02,1.639159622340398982e+03,2.337513252608877337e+03,3.094821187079272022e+03,4.031083135192432565e+03,4.256944171790536529e+03,2.824298281053911069e+03,5.595642455548276075e+02,-1.010159586785875604e+03,-1.742236512317676443e+03,-2.151207407895126835e+03,-2.206218563480697412e+03,-2.048113733812988812e+03,-2.173864750177845053e+03,-2.434089405638411336e+03,-2.287676894472395816e+03,-1.771060242885622984e+03,-1.174831340398932753e+03,-4.954850115760099243e+02,2.987100176169046790e+02,1.127648817385168513e+03,1.913190630230858005e+03,2.678581546106049700e+03,3.646242783406329181e+03,4.561615809437162170e+03,4.255110438666419213e+03,2.332693884821931533e+03,1.445516355973691702e+02,-1.259983120293814409e+03,-2.117240343811709863e+03,-2.580836204496679784e+03,-2.587079645734851965e+03,-2.543141764422328379e+03,-2.732358410265711882e+03,-2.872675747224641327e+03,-2.744108687828538223e+03,-2.391896509574860374e+03,-1.755654585960812938e+03,-8.630079458019340564e+02,-1.384152763663792030e+01,6.673837332331397647e+02,1.344774723532232201e+03,2.084412657230571767e+03,2.762452128210699811e+03,3.468663607821334153e+03,4.431467665388563546e+03,4.937398793642254532e+03,3.767801379443941187e+03,1.442146693777752944e+03,-3.674883316435254983e+02,-1.396691050078327862e+03,-2.171917343396329215e+03,-2.519858814963000896e+03,-2.482043083217664844e+03,-2.589620843789740320e+03,-2.855643725848201484e+03,-2.934697495087554216e+03,-2.678169039276598141e+03,-2.101946588515366329e+03,-1.368705027067011770e+03,-6.564084817925029256e+02,-9.364008981389588371e+00,6.292654845418969671e+02,1.356783127275992229e+03,2.107326534013875971e+03,2.862712472261001949e+03,3.749613155792297675e+03,4.091229016295107613e+03,2.882942060110779948e+03,7.738417149506728947e+02,-6.990595851139777324e+02,-1.284045024039511873e+03,-1.470626448109119337e+03,-1.370672642256260588e+03,-1.208348847035165363e+03,-1.326250011755729929e+03,-1.538112796115724677e+03,-1.458193526225051755e+03,-1.083438662573526926e+03,-5.616139211139516192e+02,8.596642203169324148e+01,7.980020680631259893e+02,1.495989875310018306e+03,2.192506856451514523e+03,2.844262693305077391e+03,3.530040436110639348e+03,4.338001128414212872e+03,4.488205072628294147e+03,3.057234761472085665e+03,8.074389279155086570e+02,-7.900417599928920254e+02,-1.587254634803059162e+03,-2.034897801443908293e+03,-2.152176369026519751e+03,-2.197906993240871543e+03,-2.592571846391314466e+03,-3.091047607534937924e+03,-3.232267482393299360e+03,-3.075729836247365256e+03,-2.843882514177881148e+03,-2.530398493449923990e+03,-2.155331825852726979e+03,-1.800918763499009401e+03,-1.404334870747067271e+03,-9.614441857532567610e+02,-5.826432314746492693e+02
-2.707651263498789831e+02,9.344621781019294531e+02,6.568106722894355016e+02,-1.096204492783041132e+03,-2.820782145145537470e+03,-3.632173402922834157e+03,-4.052185661878843348e+03,-4.319017169678381833e+03,-4.155599171474038485e+03,-3.866538930433306632e+03,-3.793641871342862942e+03,-3.697083569515757972e+03,-3.322260820808204244e+03,-2.605351077976919441e+03,-1.643029996859871289e+03,-6.957814695285237576e+02,1.473471688464774161e+02,9.401710954936088456e+02,1.702510695936051206e+03,2.497641122717330290e+03,3.278972682221789910e+03,4.080320683083740732e+03,5.053271288046390509e+03,5.432992288457383438e+03,4.106373891150690724e+03,1.779030507509506151e+03,6.263425208694332014e+01,-9.203287015113710368e+02,-1.669162429567831850e+03,-2.000519043608028824e+03,-2.011312657081554335e+03,-2.189607053779214766e+03,-2.455065307966650380e+03,-2.520579749774836273e+03,-2.359637269900515093e+03,-1.879617370354761078e+03,-1.137738181407596812e+03,-4.421802106568961221e+02,1.897117943439305350e+02,8.853216786972218415e+02,1.559543932798364494e+03,2.153308017037276386e+03,2.788949791590985569e+03,3.651991730167153491e+03,4.352765374561044155e+03,3.759126909772444378e+03,1.740398712059547051e+03,-2.020532715980235707e+02,-1.185684720555668264e+03,-1.664472829026818999e+03,-1.834271722979195147e+03,-1.698003867430188620e+03,-1.804665572474580586e+03,-2.315178672962649216e+03,-2.612962478726524751e+03,-2.329181671958435800e+03,-1.720889573825113985e+03,-1.106977952626180468e+03,-5.124609452538749110e+02,1.342433512431958889e+02,8.071241206720595756e+02,1.441127258487850895e+03,2.034806470541478575e+03,2.791425308028321979e+03,3.626571979369205565e+03,3.531547276367123231e+03,1.902802848166837748e+03,-1.268736031186506352e+02,-1.368481640887386448e+03,-1.979096832636868385e+03,-2.250898079091722138e+03,-2.110258848013810166e+03,-1.919580807272252514e+03,-2.142774253599508484e+03,-2.481246629926158676e+03,-2.299760336210104015e+03,-1.625757086582775628e+03,-9.344386140248924448e+02,-2.884308360409879128e+02,5.105728361377924784e+02,1.403085842542375985e+03,2.196141630162989713e+03,2.875095863791340435e+03,3.715728343878664873e+03,4.639611554832727961e+03,4.557139042206543309e+03,2.833896898293101458e+03,6.281586751949494101e+02,-8.969950755695927000e+02,-1.866990626680421883e+03,-2.443768770608050545e+03,-2.527609559028092008e+03,-2.479351184555637701e+03,-2.633802583190284167e+03,-2.766841377975299110e+03,-2.610276498952731345e+03,-2.246911858079246031e+03,-1.740513145266096672e+03,-9.413590094893504556e+02,5.263422132145728938e+01,9.177566952812171621e+02,1.641192279586659879e+03,2.341250715735112408e+03,3.088508207432510062e+03,4.063930959303431337e+03,4.795732138730077168e+03,4.092647949126758249e+03,1.946324710892538860e+03,-1.400795794028037449e+02,-1.299819170502203633e+03,-1.871846644564345297e+03,-2.129822546690294985e+03,-2.143896311293494364e+03,-2.215868094327543531e+03,-2.444605801500928465e+03,-2.528509611034470709e+03,-2.300652786751075382e+03,-1.925195830338856240e+03,-1.470015152826693793e+03,-7.708587065736494424e+02,9.794424747992377434e+01,8.545474230007957885e+02,1.495953830965629550e+03,2.172733583762291346e+03,3.008462548773248272e+03,3.825102529061138284e+03,3.692650977258190323e+03,2.035484309110654522e+03,-1.305739287392962638e+02,-1.533615444870177043e+03,-2.120701499246482399e+03,-2.264570882847159737e+03,-2.014122224597219656e+03,-1.660186873488234141e+03,-1.627339106000405081e+03,-1.731952516961647689e+03,-1.570249768803876805e+03,-1.144672998613772052e+03,-6.034720264538347010e+02,2.639821445188886173e+00,6.481692149180571505e+02,1.265031990532350846e+03,1.782971619551084814e+03,2.403717739101825828e+03,3.195347749399357781e+03,3.268084595382167208e+03,1.871251344031873941e+03,-6.126236865897845973e+01,-1.240519958904150371e+03,-1.656493905186689062e+03,-1.709464110625995090e+03,-1.512794046819389678e+03,-1.371817753484750483e+03,-1.519878307537014280e+03,-1.698244242846414636e+03,-1.589344174774196290e+03,-1.168143214030571016e+03,-5.615610512732528150e+02,1.476155537909789359e+02,9.516232379423597649e+02,1.779227712690009866e+03,2.569970216874925427e+03,3.459060657225018986e+03,4.243617671352244543e+03,3.998906400876465341e+03,2.349163436718703451e+03,3.806011970081945037e+02,-8.639074683031434461e+02,-1.526025907629609719e+03,-1.914157772190346805e+03,-1.998900970169138873e+03,-2.001418605310826024e+03,-2.151842880236580186e+03,-2.254592947616036781e+03,-2.101878384442002243e+03,-1.734469646475033187e+03,-1.205743259767338031e+03,-5.273423018090628602e+02,2.388378360696067375e+02,9.698967758846031302e+02,1.590685236604636202e+03,2.317501782302547781e+03,3.219320715795709475e+03,3.395349137370241806e+03,2.020918989538635060e+03,-3.170078650807316123e+01,-1.410850171503710726e+03,-2.051180820726120146e+03,-2.347528660472172305e+03,-2.291110795884268555e+03,-2.085352421933102505e+03,-2.074386342910894200e+03,-2.130342809605566799e+03,-1.975602499598023314e+03,-1.579121645720126480e+03,-9.825258191027543262e+02,-2.559975730819917317e+02,4.883279026964388549e+02,1.233220302580019052e+03,1.968441490655420694e+03,2.673947435602813584e+03,3.416697807400103557e+03,3.800044641280628639e+03,2.930306876289979300e+03,9.556913020835343104e+02,-7.164982844993315894e+02,-1.371783169588642977e+03,-1.412814984815967136e+03,-1.236085912988285600e+03,-1.117183264870327548e+03,-1.247629938192462077e+03,-1.405554091871492574e+03,-1.286539049864772778e+03,-8.738852219218886148e+02,-2.662340383400288601e+02,5.038385970043283351e+02,1.371934960008938788e+03,2.166629568752857722e+03,2.953972268124246057e+03,3.829365540874632188e+03,3.968622364503245990e+03,2.508879828721727336e+03,2.775865623568440128e+02,-1.386515368540616009e+03,-2.304154203403107658e+03,-2.649077092285371691e+03,-2.482702006864270970e+03,-2.276962001307118499e+03,-2.378875910818159809e+03,-2.495485891107638508e+03,-2.237183259533246655e+03,-1.606314303892658245e+03,-8.781846367600094254e+02,-9.283970320877676841e+01,9.972162361769190966e+02,2.211151329251762036e+03,3.200842073598883871e+03,4.195866234029688712e+03,4.809478465425819195e+03,3.721418238409427431e+03,1.192047777705598264e+03,-9.153676493718865004e+02,-2.007997870765460448e+03,-2.677160760665526141e+03,-2.949162789283313941e+03,-2.793187783059614958e+03,-2.641867299581452244e+03,-2.588987807857767166e+03,-2.352627797294946504e+03,-1.834343246042906230e+03,-1.134745089040396579e+03,-4.060637986142332920e+02,3.579412230505732850e+02,1.325082263779405821e+03,2.380585794643227018e+03,3.366869983198653244e+03,4.251853928504803662e+03,4.188220030118359318e+03,2.347226724769802331e+03,-1.234508720242466495e+02,-1.604474529090998203e+03,-2.191900010889627083e+03,-2.451426313819843926e+03,-2.366998962886688332e+03,-2.163214973570218262e+03,-2.163141873064148967e+03,-2.227450631076684203e+03,-2.057503738516622434e+03,-1.455729791242550846e+03,-5.384351184353702138e+02,3.147873302342090369e+02,1.069648423223353348e+03,1.894924349024493949e+03,2.677421935095595018e+03,3.500495428556710067e+03,4.434188041461266039e+03,4.496391976538543531e+03,2.819286823060210736e+03,4.663822241691323711e+02,-1.037362721920202148e+03,-1.674823693724106533e+03,-1.954773379572368185e+03,-1.924022896100781509e+03,-1.788081002844228124e+03,-1.837162223348303542e+03,-1.889410379649612196e+03,-1.654098968166168333e+03,-1.128553840036276142e+03,-4.435573342958700209e+02,3.187984651418368571e+02,1.145949570056854782e+03,1.968410890366028525e+03,2.731798097929155119e+03,3.389058574916836733e+03,3.323095433522729309e+03,1.871633895488194639e+03,-2.166652290806349583e+02,-1.639144000755716661e+03,-2.272210694592873551e+03,-2.496139828768156804e+03,-2.357193680806303746e+03,-2.112850631544314638e+03,-2.078159240688685259e+03,-2.069795612360153882e+03,-1.802186261846390607e+03,-1.277280546373867764e+03,-5.672593870297916965e+02,2.672810138161696614e+02,1.074273049352026192e+03,1.735789161664812127e+03,2.405021362681542541e+03,3.376616015178576617e+03,4.249124872659051107e+03,3.823121030603820145e+03,1.906203835486146090e+03,-9.645973599532800336e+01,-1.272265037910493902e+03,-1.928905699226637353e+03,-2.265342310655817528e+03,-2.245146275886521380e+03,-2.156936755676356370e+03,-2.215486663041353495e+03,-2.282985291634361147e+03,-2.121255820895529723e+03,-1.592268814559925886e+03,-8.667725360664563823e+02,-2.255873074212931897e+02,4.031361024399666917e+02,1.198426914653629865e+03,2.024000192782051727e+03,2.728767080492118566e+03,3.557980492953914563e+03,4.535361038989261033e+03,4.596670628026437043e+03,2.862214063877608169e+03,3.944712256100376635e+02,-1.226223359117015889e+03,-1.896249341091175665e+03,-2.187854348553040836e+03,-2.299244452232875574e+03,-2.363495762622120310e+03,-2.533326285817366625e+03,-2.731636842239604448e+03,-2.752409899309965112e+03,-2.492204246004804190e+03,-2.013716203692032195e+03,-1.412598968626828992e+03,-7.197954037704622579e+02,2.079054624051150313e+01,7.743959039883640116e+02,1.584061908467575904e+03,2.354042903679516257e+03,3.011896360576954066e+03,3.958162718151427271e+03,5.033660725249093048e+03,4.734918892173570384e+03,2.497248449983077990e+03,4.514683588548223270e+00,-1.366895435646507394e+03,-1.933153851973414021e+03,-2.157213203787873226e+03,-2.094578549273182944e+03,-2.040578279331672547e+03,-2.239939159514315634e+03,-2.442128156483334351e+03,-2.339339297124006407e+03,-1.951747536641156785e+03,-1.396184081491981715e+03,-7.122360950636607413e+02,7.453988636798101197e+00,7.129992791404131367e+02,1.502184276829938426e+03,2.327956210923491199e+03,3.153159993495251001e+03,4.030064527415570865e+03,4.140570164778746403e+03,2.452735010478473214e+03,-1.128795833416030803e+02,-1.738053101148568885e+03,-2.228136943584989695e+03,-2.254773919533865410e+03,-2.008452161373372974e+03,-1.769999669779471560e+03,-1.886622898833710678e+03,-2.111303059629164181e+03,-2.051490119137286456e+03,-1.701064100288940153e+03,-1.148244055088143568e+03,-4.278104400380923380e+02,3.346528375137392004e+02,1.137903560458716129e+03,2.067645889878212074e+03,2.980428666666084609e+03,3.925005591599264335e+03,4.852627974902395181e+03,4.580456487245050084e+03,2.362496615776872659e+03,-3.012206494885739971e+02,-1.806807003839692470e+03,-2.354920814296332992e+03,-2.520484703738143253e+03,-2.380780350871791143e+03,-2.234724384948199258e+03,-2.405144834450813050e+03,-2.619979899756650411e+03,-2.472268295102034699e+03,-1.986894123339316138e+03,-1.327840129549038011e+03,-5.201630114416677770e+02,3.757879491027453014e+02,1.288883804395806692e+03,2.185531765698607614e+03,2.992970537188717572e+03,3.895348627720980858e+03,4.911454979669781096e+03,4.890959102498819448e+03,2.899024072992383481e+03,1.904283994843056576e+02,-1.520848564897308506e+03,-2.238090353219392455e+03,-2.554068144847060921e+03,-2.552351281020538863e+03,-2.422496118051640224e+03,-2.447873323588975381e+03,-2.528787549459826550e+03,-2.472905363100695922e+03,-2.252694473376026508e+03,-1.828975790625863738e+03,-1.162970028917417721e+03,-3.507603707464816125e+02,4.639011746298938306e+02,1.282132977613360254e+03,2.150088321832702150e+03,2.941760167225996156e+03,3.752999658071169506e+03,4.772380652280497088e+03,5.018448053357833487e+03,3.221226368838125836e+03,3.730010112240636317e+02,-1.439741017321758818e+03,-2.035947283630210677e+03,-2.324005208022525949e+03,-2.408773306129839057e+03,-2.319751446645597753e+03,-2.482008780263677181e+03,-2.799982091342025342e+03,-2.781902419221258242e+03,-2.378683398073028911e+03,-1.895440480249606708e+03,-1.402006511724665415e+03,-7.246314832512446173e+02,1.064256320296801732e+02,9.182058233845604036e+02,1.720092341647388366e+03,2.499741202163474554e+03,3.287305800847949286e+03,4.318358791259874124e+03,4.979296034587971008e+03,3.843924009244477929e+03,1.192385155853583683e+03,-8.830998293891751700e+02,-1.613203994980966399e+03,-1.859882995279593160e+03,-1.951943839865949940e+03,-1.825245363385047767e+03,-1.852304743279432159e+03,-2.132392030176130447e+03,-2.273334187775729333e+03,-2.043101326697350942e+03,-1.536319362468269446e+03,-9.532450989344149548e+02,-3.804249024019206331e+02,2.700691409780356480e+02,1.065874057847120184e+03,1.874833183897972503e+03,2.546729635868987316e+03,3.341181929459758976e+03,4.346943056437004088e+03,4.427766760645573413e+03,2.697695739776904702e+03,4.178069939331284104e+02,-8.988251758785644370e+02,-1.388637773213128639e+03,-1.469107575042551616e+03,-1.223622418441799255e+03,-1.145323146631682675e+03,-1.465500704010220716e+03,-1.711175802873822022e+03,-1.600997836317313386e+03,-1.212231359354846063e+03,-6.271939985860234401e+02,-5.584189592970272997e+01,4.208248444203196073e+02,1.006880378193966521e+03,1.642338495922310813e+03,2.196771373816576670e+03,2.891361724520282223e+03,3.337672287923254771e+03,2.244193498766997436e+03,-6.455617008045910552e+02
7.007260365760464538e+01,3.475905730126577282e+02,7.423566526947871580e+02,1.225925074702697884e+03,1.726824965290455111e+03,2.235405485495949506e+03,2.707976432642568398e+03,3.180226773197141029e+03,3.893504480156322188e+03,4.550790100743089170e+03,4.040321002956325628e+03,2.127734435259166276e+03,1.730357430170438420e+02,-8.553685809280816557e+02,-1.325272640265493010e+03,-1.653074737674487551e+03,-1.838367042733184689e+03,-2.014807320566398630e+03,-2.283338199015647660e+03,-2.395650191744665790e+03,-2.163552247875637931e+03,-1.787660429112809879e+03,-1.433171780204871766e+03,-9.232149729010257033e+02,-2.056381257220612611e+02,4.907569716087455731e+02,1.097116720145780164e+03,1.677553855260479395e+03,2.359018595823291434e+03,3.291350382299056037e+03,3.832487235639091523e+03,2.891020723430153339e+03,8.511481058181018398e+02,-7.219527402343414906e+02,-1.334510614800718258e+03,-1.622818176177861915e+03,-1.878474036854548103e+03,-2.013387176831467968e+03,-2.149708757784352201e+03,-2.324020805446864415e+03,-2.299311174095516435e+03,-2.044193062004336298e+03,-1.737156003784903533e+03,-1.331327584256022419e+03,-7.351962272514924734e+02,-9.765583774864086308e+01,4.947888079173350206e+02,1.121816590081747563e+03,1.743816745885124419e+03,2.373146212256755462e+03,3.215055636719756876e+03,3.871160449664032512e+03,3.291613723826337264e+03,1.499116298750303258e+03,-1.234803150640080389e+02,-8.764510134657515437e+02,-1.215429528762280370e+03,-1.406367344905711434e+03,-1.449799287644648302e+03,-1.573327391528586986e+03,-1.795253403470617059e+03,-1.843198949473722450e+03,-1.625519507163201979e+03,-1.187904558670410779e+03,-5.847720206586745917e+02,2.748342080506643015e+01,5.733100308262378348e+02,1.110385919759248054e+03,1.615808085791474241e+03,2.190508428902880951e+03,2.935679443713349428e+03,3.163773699696828317e+03,2.093191519972556307e+03,3.964002171591296815e+02,-7.234286379828412237e+02,-1.228873911385203883e+03,-1.556621524868004599e+03,-1.701153160642267721e+03,-1.740157916061132482e+03,-1.897703503835946321e+03,-2.035783519692444315e+03,-1.905523781640408515e+03,-1.557625249034822446e+03,-1.105718509060275665e+03,-5.465877051698278137e+02,2.464321535365712634e+01,5.483412815504033233e+02,1.180981018910098101e+03,1.890247386259817176e+03,2.553928210078016491e+03,3.327232726774641378e+03,3.819215684748256990e+03,3.058813799144685163e+03,1.264992759703710362e+03,-2.057067381518635329e+02,-9.002569142703791840e+02,-1.346817998537477933e+03,-1.711358203214114610e+03,-1.883744823474157101e+03,-2.023119896127623633e+03,-2.215682732858068903e+03,-2.254060889691922512e+03,-2.011448960175456477e+03,-1.655383253319108007e+03,-1.262756016350369919e+03,-6.270700616543476826e+02,1.856109958460525604e+02,8.393607085771556058e+02,1.341946407625270695e+03,1.848109291140877758e+03,2.460811645758182294e+03,3.250954240890794608e+03,3.571833663755481211e+03,2.579982098986864003e+03,8.780382438150967346e+02,-2.683925586511804227e+02,-8.077829836174905722e+02,-1.276377039836896529e+03,-1.613283484456317638e+03,-1.731110287362816052e+03,-1.906199919374058481e+03,-2.144067979011265379e+03,-2.149913760892180562e+03,-1.874550812574429301e+03,-1.492284242406991325e+03,-1.077950052350923897e+03,-6.054863408931582853e+02,-1.027749571761694369e+02,3.859063751725406064e+02,9.267455896518632699e+02,1.525807267211393992e+03,2.069794061596857773e+03,2.715696593946212943e+03,3.506905404036072014e+03,3.574437956608695458e+03,2.271918356557165680e+03,5.545376709320521513e+02,-4.563592209587371826e+02,-9.376121017299080904e+02,-1.316089686403015776e+03,-1.533571422458721145e+03,-1.652241579125653516e+03,-1.845353689419123157e+03,-2.026427210536405028e+03,-2.015482923424863429e+03,-1.740622611965661463e+03,-1.271924524120736123e+03,-7.479834610365080607e+02,-2.242904716461679868e+02,3.084722211606086830e+02,8.503648517559317952e+02,1.363415000795981996e+03,1.854366123990732603e+03,2.527909508024939896e+03,3.236544417755478207e+03,3.037394249535465860e+03,1.544783059245232153e+03,-1.404575352508332458e+02,-1.052122007389411465e+03,-1.426550063742852672e+03,-1.634798303221303740e+03,-1.719203035044180979e+03,-1.858696908361975829e+03,-2.129485826913460187e+03,-2.272300730044139073e+03,-2.118137876212800165e+03,-1.749989943938758870e+03,-1.268155075129314355e+03,-7.167213363620265909e+02,-1.220873566460595043e+02,5.020446639725955151e+02,1.144463929582108676e+03,1.800510605725761707e+03,2.437198274184675483e+03,3.104020098904740735e+03,3.991653676478718808e+03,4.715555705796217808e+03,4.153138228072507445e+03,2.175948854250835211e+03,2.461920824069596847e+02,-7.810283924050768292e+02,-1.498744622065005615e+03,-2.192971636965054131e+03,-2.526942151643819670e+03,-2.687251564043969211e+03,-2.997703647949187598e+03,-3.204963140639153153e+03,-3.045624918062445431e+03,-2.618556425533977290e+03,-2.093744823989042288e+03,-1.520465319350312257e+03,-8.061213435363207509e+02,2.802624616139473801e+01,7.576994810115315886e+02,1.408814012978577239e+03,2.173017216467022990e+03,2.938864133294879593e+03,3.754369613962476251e+03,4.792504777698399266e+03,5.134299329531065268e+03,3.630174008480357770e+03,1.148449970009061190e+03,-5.460255732943460316e+02,-1.299289433283540575e+03,-1.827433904109744162e+03,-2.210810474326121494e+03,-2.441193286095920485e+03,-2.760089772866476324e+03,-3.074694837707786519e+03,-3.112388805745550144e+03,-2.869657759900189376e+03,-2.443964339168616334e+03,-1.866071824360775963e+03,-1.212619729639747902e+03,-5.661352399500550518e+02,7.469915738076463185e+01,6.924516425775913149e+02,1.326207265197135030e+03,2.130570774844256448e+03,3.004850420422736534e+03,3.838939059087625992e+03,4.856657078225278383e+03,5.416761106631975053e+03,4.152739424380419223e+03,1.553827883921834427e+03,-4.006381444665262279e+02,-1.244683220310276056e+03,-1.793675950685728367e+03,-2.222277553764852200e+03,-2.438753206118621165e+03,-2.715033386853626325e+03,-3.056523503470698415e+03,-3.146276868993692460e+03,-2.901057765784581989e+03,-2.464578495169495454e+03,-1.936433243479643352e+03,-1.329238725503194701e+03,-6.615346602601130144e+02,-1.573414586979049545e+01,5.697732200010192400e+02,1.182582274509872605e+03,1.859671637147002912e+03,2.572566780227124582e+03,3.522322078723743289e+03,4.619883376319541640e+03,4.692665558515045632e+03,2.930713830286200391e+03,5.738181847677823271e+02,-8.398585234000399851e+02,-1.400859660544806502e+03,-1.679934148268447643e+03,-1.758733253440316957e+03,-1.838332948668748941e+03,-2.150113394242875074e+03,-2.462437610716607651e+03,-2.470979007883938721e+03,-2.193112248070847272e+03,-1.735254012765236212e+03,-1.129854747822364061e+03,-4.465581060717874493e+02,2.170222218157388170e+02,8.430455594454643915e+02,1.473839948905563233e+03,2.114063935426171156e+03,2.805938567184935891e+03,3.787261078603457008e+03,4.855411817685350798e+03,4.672356509172303049e+03,2.484737920846671841e+03,-1.035662570365927309e+02,-1.403172383200261038e+03,-1.843111043726691832e+03,-2.214982485120310685e+03,-2.446649754171343830e+03,-2.609960351401876324e+03,-2.915653907105343478e+03,-3.137600753807525507e+03,-3.029612600797407595e+03,-2.653965633053119291e+03,-2.138795733321110674e+03,-1.533336644524598569e+03,-8.672027371794575856e+02,-1.918602992538482113e+02,4.589460590327659020e+02,1.106167597633221703e+03,1.795949403527087725e+03,2.528782802466998419e+03,3.309406857705914263e+03,4.333544117657756942e+03,5.449493360167053652e+03,5.429016834083000504e+03,3.465897885481916092e+03,9.002867163360172071e+02,-6.480832976334077102e+02,-1.372477968587951182e+03,-1.968818273187570185e+03,-2.382618739545568133e+03,-2.600648987026683244e+03,-2.905317617377075749e+03,-3.243522264790630288e+03,-3.327438811297170560e+03,-3.096790408368483895e+03,-2.666519356740746389e+03,-2.119720332834494457e+03,-1.515114310025830491e+03,-9.108004873921762510e+02,-3.149411224569093974e+02,3.151720358789042393e+02,1.039582096220346784e+03,1.855989596722150964e+03,2.644507842095928481e+03,3.426585263882866002e+03,4.495684210302506472e+03,5.570930624671928854e+03,5.333194122594544751e+03,3.227270743284285800e+03,7.290196880886239796e+02,-7.316772560575291209e+02,-1.414888391096142414e+03,-1.927544257660508492e+03,-2.271295651157468001e+03,-2.501377429105476949e+03,-2.827250992027791654e+03,-3.143686191225750463e+03,-3.195080765234467435e+03,-2.953114822468888633e+03,-2.524951161133219557e+03,-1.970073356167779821e+03,-1.353956702607863235e+03,-7.406026151707262670e+02,-1.208769698967078057e+02,5.144832110677986066e+02,1.185868959283216782e+03,1.921663038260757276e+03,2.627527917822427298e+03,3.406646445137595038e+03,4.552937299383353093e+03,5.358448383718215155e+03,4.376660577713534622e+03,1.867233181963003744e+03,-2.491248926868925082e+02,-1.205250377494329086e+03,-1.692030300120464972e+03,-2.037811916286515270e+03,-2.187584077553726274e+03,-2.391718729340848313e+03,-2.729049726315890894e+03,-2.899426662361890067e+03,-2.764573246006822046e+03,-2.398111998322116506e+03,-1.810912219953248268e+03,-1.073880934374711842e+03,-3.608691800872805402e+02,2.807376848784605272e+02,9.351999662368184545e+02,1.631935462666874855e+03,2.289857098470257370e+03,3.011603478414716392e+03,3.989449389581536707e+03,4.504711173788082306e+03,3.378817818535528659e+03,1.096852633991986750e+03,-6.351368213136851182e+02,-1.339947231006173297e+03,-1.639394645571740284e+03,-1.770041088834586844e+03,-1.804220233675735926e+03,-2.022043464663514897e+03,-2.351400057496039153e+03,-2.425978589593401921e+03,-2.167870927327420304e+03,-1.715695394864717400e+03,-1.118137556490102497e+03,-4.273265597578260895e+02,2.340345442936817904e+02,8.707700407586468145e+02,1.548674715609833584e+03,2.172872154224506630e+03,2.849425155929535322e+03,3.791334843121855556e+03,4.185202036904330271e+03,2.859170576784753848e+03,4.978043274888439100e+02,-1.131630197634464139e+03,-1.689449354819593736e+03,-1.897471075147150486e+03,-2.008372880433903674e+03,-2.060375853882705542e+03,-2.251842561427196870e+03,-2.483464458186121647e+03,-2.446377557526314376e+03,-2.076772689880403505e+03,-1.512460029973625524e+03,-8.774461016207326338e+02,-2.157115483191652743e+02,4.834797084319496889e+02,1.227853756399692884e+03,1.949536385866737419e+03,2.618166625124597886e+03,3.514243647364897697e+03,4.550547506472345958e+03,4.498787813705398548e+03,2.694595089169121366e+03,5.314552861389578311e+02,-6.812907386367370464e+02,-1.339567406941511763e+03,-1.922431375867747192e+03,-2.201534340096848155e+03,-2.264065999228228065e+03,-2.443923878213945954e+03,-2.603320652800007792e+03,-2.454423076384516207e+03,-2.021882275308441876e+03,-1.424503783537222262e+03,-7.171751618643199890e+02,1.922309265991242455e+01,7.840076102550723363e+02,1.567495751200784298e+03,2.172394519937070527e+03,2.736076622580926141e+03,3.605335989206430895e+03,4.068178621036528511e+03,3.023573768941914295e+03,1.020858108988935214e+03,-5.223348746265660338e+02,-1.361345450220220300e+03,-1.941868534267901623e+03,-2.258771117640910234e+03,-2.313433989837131321e+03,-2.412466988494461475e+03,-2.556369036154851074e+03,-2.462027815439873848e+03,-2.092340089141046064e+03,-1.538498725573280126e+03,-7.909766032014767916e+02,2.714259505425178531e+01,7.390783317815648843e+02,1.409172857493262200e+03,2.093830564425633838e+03,2.770458747434483939e+03,3.445401213576489681e+03,3.541907426733233024e+03,2.322251609901818483e+03,4.671001646012289825e+02,-7.445757495616121560e+02,-1.291850465529573739e+03,-1.618225985464363021e+03,-1.681657705171971884e+03,-1.660193374501564904e+03,-1.814121638888934285e+03,-1.893250013241286752e+03,-1.662497623891858439e+03,-1.223949334143500664e+03,-6.762112666543075647e+02,-4.413493165308392463e+01,6.492531819070504753e+02,1.315634518462419237e+03,1.868624451819697697e+03,2.468829979613064552e+03,3.014474689223707173e+03,2.694439177531714904e+03,1.244216956346130246e+03,-3.079745291280682977e+02,-1.181688612845115131e+03,-1.627023545199684577e+03,-1.833606991539723367e+03,-1.747055854364070456e+03,-1.662928662195501602e+03,-1.746746482049220276e+03,-1.670742120807382435e+03,-1.271668038038316354e+03,-7.189259744903231422e+02,-3.808272518992998812e+01,7.474039010651802073e+02,1.422478941808922627e+03,2.011452365802841086e+03,2.675324978777814522e+03,3.391397827864696865e+03,4.253680339140989418e+03,4.952691954475700186e+03,4.436204538469241015e+03,2.671882707472063430e+03,1.041680241058547153e+03,9.482327697187577087e+01,-7.142998186477601621e+02,-1.419796400313432287e+03,-1.770042444258276419e+03,-2.011908467191766249e+03,-2.366739390631571041e+03,-2.663203644070965311e+03,-2.705713620344806714e+03,-2.547657847239147941e+03,-2.405173175121028180e+03,-2.336901244867338846e+03,-2.193832080409946684e+03,-1.940748020291905732e+03,-1.702622484632380065e+03,-1.520409408985961363e+03,-1.281157424570187231e+03,-9.136947431944435039e+02
