-2.728529747671141195e+02,-1.033288849152829016e+03,-1.593527315197850157e+03,-2.011435961937966567e+03,-2.394912683866054067e+03,-2.756653369886885685e+03,-3.067344791849611283e+03,-3.181709690913561190e+03,-3.008481173288034370e+03,-2.734455886043834653e+03,-2.478068602650709181e+03,-2.123431267965434472e+03,-1.645267349245115383e+03,-1.094518788541728554e+03,-4.605768171247249256e+02,2.267464060240860135e+02,9.324030634528226074e+02,1.677241626214000462e+03,2.525996548177609839e+03,3.442926116767835083e+03,3.915340443325687374e+03,3.344477866142367930e+03,2.090109689692501888e+03,1.090240279316621809e+03,5.202339351670633505e+02,-2.907165891787798273e+01,-5.675022709342746339e+02,-8.999609802190667551e+02,-1.146624329929459691e+03,-1.482937844752564615e+03,-1.812709308562066326e+03,-1.929826718088733287e+03,-1.832333691708388415e+03,-1.653750087819579903e+03,-1.378023296754013245e+03,-9.619859576157170977e+02,-5.243185260380269028e+02,-1.077115930753643056e+02,4.210664532764945989e+02,1.063465922494189272e+03,1.704872989126224184e+03,2.438902813285382308e+03,3.248527794327360425e+03,3.590673071910125600e+03,3.045634567191909809e+03,1.973999735673686246e+03,9.860094208403334051e+02,2.176443844379818984e+02,-4.960128527556543077e+02,-1.097576566167021383e+03,-1.446670494818689804e+03,-1.712154667668555248e+03,-2.072902725227766496e+03,-2.365989479602963911e+03,-2.429713425192258001e+03,-2.353251886798626401e+03,-2.194448171324022951e+03,-1.897485170510251692e+03,-1.539888482575412127e+03,-1.224371415334546100e+03,-8.163084326229848102e+02,-2.475358632821979086e+02,2.953308948558420752e+02,8.261694460951325709e+02,1.487205485964334912e+03,2.153955445568270989e+03,2.833569840819800447e+03,3.626626512588159130e+03,3.990315700200230822e+03,3.339361570103294980e+03,2.150227274006434982e+03,1.221087913435475002e+03,5.610544596810254916e+02,-9.873779260064748087e+01,-6.944007374458481081e+02,-1.162510820717669503e+03,-1.557897125419110580e+03,-1.873471358493773778e+03,-2.123387171861785191e+03,-2.322416094056587099e+03,-2.380178124889469473e+03,-2.268070356003726374e+03,-2.074808737326887240e+03,-1.811343470339773148e+03,-1.468268771238367663e+03,-1.110014806770557698e+03,-7.078772348854549818e+02,-2.199962982880465461e+02,3.093233784368228498e+02,9.141201192556000024e+02,1.565459004155093680e+03,2.205423977760034177e+03,2.978798324466436952e+03,3.625209574882210745e+03,3.406314311056004044e+03,2.370861043303957558e+03,1.366179291201161504e+03,6.820121368280181287e+02,4.103164183278124710e+01,-5.352554929004014639e+02,-9.272667709956650697e+02,-1.294166830714815205e+03,-1.684891044121525738e+03,-1.960569859752050434e+03,-2.096879629496034795e+03,-2.124273465141197903e+03,-2.035306081645474478e+03,-1.823254456331274923e+03,-1.519912450351426969e+03,-1.197125683683071202e+03,-8.392098326547094302e+02,-3.989791811000616235e+02,5.658290425632594633e+01,5.137915281190623773e+02,1.061763844250505826e+03,1.652710742334976203e+03,2.211584527393669305e+03,2.857634314594769421e+03,3.440469324107868033e+03,3.310491224805401089e+03,2.323659726800672615e+03,1.273952750844008506e+03,6.454850360699423391e+02,9.129943720550795661e+01,-5.349451343336050968e+02,-9.697369927455495144e+02,-1.265239131289152738e+03,-1.624256031937250555e+03,-1.946014298511468041e+03,-2.123414587743418451e+03,-2.203129007739986719e+03,-2.164532305827456184e+03,-2.017166962812711290e+03,-1.837871312008557652e+03,-1.569708342756480988e+03,-1.177792084812067060e+03,-7.403388344437705655e+02,-2.301222811476142738e+02,3.553875106465774820e+02,9.167475333058018805e+02,1.486575894948627138e+03,2.141392487431859081e+03,2.893356591557376760e+03,3.583837720615362286e+03,3.670423054399364446e+03,2.864045839310022075e+03,1.749421425029551301e+03,9.549063836219786481e+02,3.840311620301584981e+02,-2.431314096370716697e+02,-8.202349466772567439e+02,-1.210386194054271073e+03,-1.582716021000796445e+03,-1.994303460782192815e+03,-2.253897051788020690e+03,-2.338682456796410406e+03,-2.330339917302262165e+03,-2.191105096437926932e+03,-1.936245106432118519e+03,-1.659153920957653099e+03,-1.351080104795097895e+03,-9.368468698193809132e+02,-4.368613147101951313e+02,1.057876847154877851e+02,7.534799480922819157e+02,1.465846641722556797e+03,2.096893689943251957e+03,2.782161441454360556e+03,3.612512902098750146e+03,4.029672011526974075e+03,3.517969083384255100e+03,2.445012289275445255e+03,1.461586989808009776e+03,7.216075849646267670e+02,3.614773594041218985e+01,-6.476448144653023746e+02,-1.182289899664775476e+03,-1.573916863663760296e+03,-1.957547274635705435e+03,-2.301902304116213600e+03,-2.552019169793612036e+03,-2.670776855590193009e+03,-2.557978816971808101e+03,-2.325157247017171358e+03,-2.153359975012043833e+03,-1.913894139920356338e+03,-1.511610645968523386e+03,-1.085825633083314642e+03,-6.288697436735259316e+02,-6.225342987519229609e+01,5.370424794660194721e+02,1.148450731597135473e+03,1.795942653213035101e+03,2.470247404497830757e+03,3.235103678753182976e+03,3.840663892003493856e+03,3.643023230356108797e+03,2.625745160390653837e+03,1.607797910053772284e+03,9.593868141777205665e+02,3.433470954673219921e+02,-2.527381168412265424e+02,-6.010605629418464559e+02,-9.205357007337307778e+02,-1.414590664284150307e+03,-1.859576746691834387e+03,-2.073933004190072552e+03,-2.078700121136276266e+03,-1.963300923989161902e+03,-1.859663478713900986e+03,-1.702927910961619091e+03,-1.355320054636468285e+03,-9.757188914160458353e+02,-6.750009152427376193e+02,-2.730469344532899072e+02,2.854402975065629562e+02,8.794496835336565255e+02,1.483047172532438253e+03,2.171223233929795242e+03,3.005944456626484680e+03,3.720649799917501696e+03,3.648968946941135073e+03,2.611597090839146404e+03,1.400936632777094928e+03,6.471068409327922382e+02,7.863258832736698878e+01,-5.477032325165046132e+02,-9.940678992593485646e+02,-1.274974232019901592e+03,-1.685056062208612275e+03,-2.165380518103320355e+03,-2.451187233374607331e+03,-2.518128760903457078e+03,-2.459522324874610604e+03,-2.321632444358770499e+03,-2.128845949482442848e+03,-1.847529586180406795e+03,-1.476032224758939265e+03,-1.094170695732616650e+03,-6.941688406362870865e+02,-1.903295138677721070e+02,4.167431248676942914e+02,1.068247428357793751e+03,1.731698920086363159e+03,2.413625618089992713e+03,3.194501614770394099e+03,3.926805577012409231e+03,3.987014030703013304e+03,3.114422505656755220e+03,1.970789044107161772e+03,1.138667398945394780e+03,5.011102885682458918e+02,-1.219579519650344537e+02,-6.433527250269203250e+02,-1.050524555306631555e+03,-1.480808109988243132e+03,-1.923964060074060853e+03,-2.220291974112593380e+03,-2.309026681853494665e+03,-2.270264465484279754e+03,-2.205056769374861688e+03,-2.088979781511421152e+03,-1.826079486922654723e+03,-1.453393606788495845e+03,-1.041274421655690730e+03,-5.668132487696324233e+02,-5.535296361838061330e+01,4.415194538170561600e+02,9.953570577583914201e+02,1.678164196894927954e+03,2.427680881910328026e+03,3.195471683473831945e+03,3.796787600570942232e+03,3.705069158825558134e+03,2.810061693776970515e+03,1.771588500273563113e+03,9.818104377551421749e+02,2.792132632391309244e+02,-3.664541632182035755e+02,-8.920231520474825402e+02,-1.336459482944059801e+03,-1.708638247226279645e+03,-2.051717892554745049e+03,-2.346132599183532875e+03,-2.440151389142306925e+03,-2.348909337540003889e+03,-2.201857103694063426e+03,-1.989041659170832418e+03,-1.713503236149146232e+03,-1.428713046631204406e+03,-1.065640214493201483e+03,-5.888840608687382883e+02,-1.043617694366186015e+02,3.733574652289115647e+02,9.314733956697350550e+02,1.585365954785975646e+03,2.335836456385044585e+03,3.097793055192819338e+03,3.446130161801893792e+03,2.977401377482746739e+03,1.999252389500114077e+03,1.177918226964517544e+03,6.105347222111481642e+02,1.112392419687785150e+01,-5.498591097189688526e+02,-8.725842337847509498e+02,-1.133822012536406646e+03,-1.536662735401401278e+03,-1.907376240248114755e+03,-2.040466830847829215e+03,-2.016266485456890223e+03,-1.940249573973874249e+03,-1.743937697268986767e+03,-1.430401589291265736e+03,-1.139679396489963665e+03,-8.353958510158003037e+02,-3.690416812636983082e+02,1.921381511420000834e+02,7.237867794188839525e+02,1.282309517860648384e+03,1.957618710421425931e+03,2.720741648350415744e+03,3.297471422647045983e+03,3.196364889166848570e+03,2.333468494512282177e+03,1.334448646518754686e+03,6.893414457799835873e+02,2.390263865706050410e+02,-1.972672593359948223e+02,-5.361115252225886252e+02,-8.013002932955124606e+02,-1.086232340104075320e+03,-1.337067521156377097e+03,-1.479159373149534531e+03,-1.493429975331392143e+03,-1.373064523189223110e+03,-1.167088426129068012e+03,-9.217724674485724563e+02,-6.079020154441457180e+02,-2.459985722139103359e+02,1.329810823289760151e+02,6.123092443849008077e+02,1.160503872752011375e+03,1.609000803386157941e+03,1.995763907989623476e+03,2.520816449193748213e+03,3.223059297942077592e+03,3.731862783155714169e+03,3.391477613951665262e+03,2.117491812597726494e+03,6.640374002415555879e+02,-4.956754749185367928e+02,-1.586830863624359154e+03,-2.687036106428671701e+03,-3.635836282921878592e+03,-4.490724832643419177e+03,-5.319638210194029853e+03,-6.119059516735291254e+03,-6.807160821938285153e+03,-6.911539219775794663e+03,-6.149111208455797168e+03,-4.945544973537494116e+03,-3.542065856906250701e+03,-1.689662493838783803e+03,5.942480457406338701e+02,2.928598352874262673e+03,4.861126240705509190e+03,6.019342404890077887e+03,6.360412545445120486e+03,6.167903818550620599e+03,5.832189189617281954e+03,5.703587094063103905e+03,5.728630157208765922e+03,5.268033766506088796e+03,3.896015096914683454e+03,2.134621097872742212e+03,7.041189269327833244e+02,-3.888765082850745785e+02,-1.339313287986001342e+03,-1.934793135614553421e+03,-2.077496652668742627e+03,-2.137565883159215446e+03,-2.391803408770344959e+03,-2.750050403095468482e+03,-3.018672623304342324e+03,-3.030364889569476418e+03,-2.813054767836590599e+03,-2.550955817091769404e+03,-2.257451361730870758e+03,-1.838355115454113957e+03,-1.212696743437907799e+03,-3.390165912803779520e+02,6.405997253854435485e+02,1.581995895332477176e+03,2.524115598773903912e+03,3.556753042329735763e+03,4.615774674311975105e+03,5.252455907721191579e+03,4.915475183196490434e+03,3.657556174753940468e+03,2.127153197144118167e+03,8.288782802793743940e+02,-1.918999412937467923e+02,-1.015922185290291054e+03,-1.719133892356367596e+03,-2.416854459404329646e+03,-3.113328293585164829e+03,-3.730713739474091653e+03,-4.156272514478368976e+03,-4.205286919324590599e+03,-3.860474587808915203e+03,-3.368135907921726357e+03,-2.929786923297437170e+03,-2.451303488558768549e+03,-1.719307540916785683e+03,-7.935220948776602654e+02,6.760335449816693654e+01,8.024639277375958955e+02,1.588988139722710457e+03,2.555117847148282635e+03,3.382164075990516722e+03,3.423722946152465283e+03,2.575314663260802718e+03,1.428045320715993057e+03,3.969573466599335916e+02,-4.410444101092027154e+02,-8.941005774193590696e+02,-9.305668627158541995e+02,-9.278019454516000906e+02,-1.106568788439536547e+03,-1.298547335061636204e+03,-1.364397173370584142e+03,-1.337981692584380198e+03,-1.214612986314411046e+03,-8.332777473834083821e+02,-1.129999554232686592e+02,6.701358617052137561e+02,1.188557344055848944e+03,1.489868390922295703e+03,1.816319037745403421e+03,2.220746299774702948e+03,2.600784027804426387e+03,3.035175840160035932e+03,3.622231125909064303e+03,3.918909278871642528e+03,3.361156631136061606e+03,2.192465658877169517e+03,1.072636182314891357e+03,1.544132280075273229e+02,-6.978245518068670208e+02,-1.384483666559421636e+03,-1.809487145531341866e+03,-2.115472169424726872e+03,-2.440724733414689581e+03,-2.713692699192726195e+03,-2.753318837126841572e+03,-2.558904682012048397e+03,-2.281372802446945570e+03,-1.895405186973328000e+03,-1.331792369372360554e+03,-6.904448961506230944e+02,-6.632693511442539602e+00,8.034175193831116530e+02,1.767590081500019096e+03,2.706593698697081891e+03,3.104071321364625874e+03,2.563090315188574095e+03,1.456786234477425296e+03,4.695078633100060870e+02,-2.927314291863244193e+02,-1.033930379322285035e+03,-1.615483694075560152e+03,-1.906434909800992727e+03,-2.148418281406870392e+03,-2.461373953554842956e+03,-2.688517137825924237e+03,-2.772684979334394939e+03,-2.685727201438195152e+03,-2.399809928619588845e+03,-2.077881214350168193e+03,-1.737037224189521112e+03,-1.197980612252247965e+03,-5.418736134628632044e+02,1.075705601326720853e+02,8.361950092610650245e+02,1.657889152636384551e+03,2.584926660142922628e+03,3.553554362878820939e+03,3.983775334650898913e+03,3.410320294054510669e+03,2.388692065367522900e+03,1.649230221039149001e+03,1.063052110793765678e+03,3.963377046800129619e+02,-3.473891119288373375e+01,-6.490204632826282705e+01,3.048109670705025565e+01,9.739861417635950147e+01,2.498248736513770609e+02,5.392921791564857585e+02
4.068280790189749041e+01,-7.163763997588964116e+01,-1.357362593265093551e+02,-2.093211725786184161e+02,-2.102555270831952612e+02,1.685267355822121260e+01,3.718173603105230427e+02,7.056962702453805605e+02,1.102374248816973704e+03,1.632994542859524927e+03,2.234315748557629831e+03,2.927970983788668491e+03,3.744599500662071932e+03,4.337160932686060733e+03,4.122638134792053279e+03,3.080222209046205990e+03,1.855446635621957284e+03,8.692704403322047710e+02,2.459927304489247035e+01,-7.732766821312945922e+02,-1.465712221174425167e+03,-2.008310651960074665e+03,-2.409533186635542279e+03,-2.732829682241609589e+03,-2.984936602043977473e+03,-3.078364623337765352e+03,-2.988122684750883764e+03,-2.734938887470192185e+03,-2.352025600582664083e+03,-1.955134711878807138e+03,-1.573884884282457278e+03,-1.080749760998332249e+03,-4.692105107667105131e+02,1.376504205663577523e+02,7.675148608845627223e+02,1.512660606626537401e+03,2.339271818499751134e+03,3.211984297523076293e+03,3.903760849424749267e+03,3.816507535125145296e+03,2.815106244137976773e+03,1.660005677132353867e+03,8.845157407204674200e+02,2.118427715551170536e+02,-5.429968752667796252e+02,-1.109255549221580623e+03,-1.418613481622437348e+03,-1.723871986156073262e+03,-2.100084553446152313e+03,-2.354998029271676842e+03,-2.361213303760877352e+03,-2.227664289699058827e+03,-2.089759617230829008e+03,-1.909544630664898705e+03,-1.606043377547965974e+03,-1.197445132178752374e+03,-7.523428102263811752e+02,-2.956694836271033182e+02,2.199709070873570909e+02,8.377415023449668752e+02,1.514860121363971984e+03,2.177633512515842085e+03,2.871275799108391766e+03,3.665606890424252470e+03,4.215567010384098467e+03,3.886452245604857126e+03,2.734961716872790475e+03,1.588238805733568142e+03,8.247031212320113127e+02,1.225504345402674744e+02,-6.154861622408276389e+02,-1.164265950415257066e+03,-1.512793191414409193e+03,-1.829317248205458782e+03,-2.181390046361533223e+03,-2.465286554210035320e+03,-2.553868446326757294e+03,-2.491959069000139152e+03,-2.366586337415140406e+03,-2.144720388942650061e+03,-1.833185392944206797e+03,-1.488416768018458242e+03,-1.074515891718380999e+03,-6.147010766638964014e+02,-1.632055102501353758e+02,4.216727887981710410e+02,1.156613502735295242e+03,1.805385915151378185e+03,2.419379119276065467e+03,3.225892034962874277e+03,3.957855742612719951e+03,3.996133311061010318e+03,3.160224710757708635e+03,1.986760902212055498e+03,1.078034037715589875e+03,4.621662928914081476e+02,-1.604397725658629952e+02,-8.347970087105746870e+02,-1.324363746606629547e+03,-1.629996025933941837e+03,-2.010015711165104904e+03,-2.380349068196382632e+03,-2.502674792458045431e+03,-2.487242809563586889e+03,-2.395901384984376818e+03,-2.110632206325805782e+03,-1.754274922937621568e+03,-1.477385741588796463e+03,-1.161370895297614425e+03,-7.126231123867062252e+02,-2.147753059674228098e+02,2.935126225867558105e+02,8.633700932226087161e+02,1.495353457947310517e+03,2.188733482397070929e+03,2.985425660749679082e+03,3.694936876106581622e+03,3.787839691974621019e+03,3.015476608216925797e+03,1.896821680139485807e+03,1.033131077574055780e+03,3.999138840520880649e+02,-2.020679742527756844e+02,-7.062762352635620573e+02,-1.074924777234826479e+03,-1.397954976370995155e+03,-1.704144978853903240e+03,-2.018002590522073888e+03,-2.305053153698734604e+03,-2.347429358196833618e+03,-2.102994604840030661e+03,-1.840543344938870405e+03,-1.670534743036935879e+03,-1.441936001935242530e+03,-1.055352012941573776e+03,-5.930465272351474368e+02,-1.625709300254852110e+02,3.116804646876584570e+02,9.202323059329887656e+02,1.594446536414593538e+03,2.325112346779752443e+03,3.131598860916120429e+03,3.691126091204966997e+03,3.478266159424676061e+03,2.509021871366625874e+03,1.447657121912490538e+03,7.273029519585121534e+02,2.006329800010800000e+02,-3.280026909146772596e+02,-8.350246842221743009e+02,-1.246062104091541414e+03,-1.586211920099852250e+03,-1.903806385777982541e+03,-2.124374681051862808e+03,-2.182123843091987055e+03,-2.129031277198177577e+03,-1.987999710369050263e+03,-1.755876507441436161e+03,-1.476009311888629099e+03,-1.143555078735640791e+03,-7.227851488720630186e+02,-2.522560914334963513e+02,2.088510005028888941e+02,6.878170297242960487e+02,1.264322083209810216e+03,1.938156407556491331e+03,2.663103756017636442e+03,3.343497298946569572e+03,3.592575201333032965e+03,3.023039957611725640e+03,1.930164638232809921e+03,9.718124945788140394e+02,3.189633862146527008e+02,-2.210788245545240898e+02,-6.979333578176193669e+02,-1.089012871698982963e+03,-1.466048261994619907e+03,-1.885229332318685692e+03,-2.241420780563268636e+03,-2.384439170689255661e+03,-2.368803436184171460e+03,-2.319625716555165127e+03,-2.174178447219718691e+03,-1.847023819820516337e+03,-1.423043620115604199e+03,-1.000586809336526358e+03,-5.545196980837486080e+02,-4.190535520090355703e+01,5.303614665103484640e+02,1.182593233057962607e+03,1.972841399042717057e+03,2.849579620120983236e+03,3.422903383271197981e+03,3.151597628773960878e+03,2.122357773314238784e+03,1.087960061993927411e+03,4.290067840552802068e+02,-6.725828464841310961e+01,-5.074820047698984808e+02,-8.463281001867961777e+02,-1.137958632503653234e+03,-1.411112945699312831e+03,-1.614614426806772144e+03,-1.637538264119751375e+03,-1.410938481584870942e+03,-1.079333105745400644e+03,-7.657267770608848423e+02,-3.632088952778165094e+02,1.725819974231029619e+02,7.436325537312177403e+02,1.319321839830814497e+03,1.894167474998468379e+03,2.447330159047898178e+03,3.012321896327278409e+03,3.632049509924737322e+03,4.177981693851919772e+03,4.146003445598757025e+03,3.066996001002530647e+03,1.316601523836334763e+03,-2.520222952689425711e+02,-1.491160436974942058e+03,-2.764179764665140283e+03,-3.891210979172586121e+03,-4.459766819701647364e+03,-4.622102651882388272e+03,-4.657818247750014052e+03,-4.493935875620615661e+03,-4.048172775471274690e+03,-3.400487123897649326e+03,-2.680107133930240252e+03,-1.994327641000077847e+03,-1.313566164045675123e+03,-5.798601712911945469e+02,1.280366225054799543e+02,7.533554384849242069e+02,1.360264353616947346e+03,2.025546732874775671e+03,2.812190051104500526e+03,3.722899857106111085e+03,4.551598020682824426e+03,4.857751560316489304e+03,4.310616116765401785e+03,3.196512539299867058e+03,2.160456909769865888e+03,1.348857897189780033e+03,5.444325891695651762e+02,-1.262797230133962785e+02,-5.336968780326956221e+02,-9.351213751190875882e+02,-1.426857225969645924e+03,-1.805157023184185618e+03,-1.987252086775510634e+03,-1.994331433485990146e+03,-1.851720994982743377e+03,-1.639279479930548405e+03,-1.407492787301840735e+03,-1.146025345776879703e+03,-7.618122254307829735e+02,-1.950679707731451913e+02,3.621093334087959192e+02,8.580219479444588160e+02,1.633695585345112249e+03,2.520332972761642395e+03,2.583547501199191174e+03,1.595112440123760962e+03,4.666178359626391625e+02,-2.658869331290036371e+02,-8.505053647364782137e+02,-1.344608135826827720e+03,-1.644069040244582993e+03,-1.943470623009414339e+03,-2.261391498552166468e+03,-2.233563394095444437e+03,-1.791616075832610932e+03,-1.271527060070075549e+03,-8.377694905488015138e+02,-4.370028593897360452e+02,-7.197639008751093570e+01,2.423345748511428042e+02,5.824174802184747932e+02,1.042627506715828076e+03,1.625235345210770220e+03,2.293740702381811388e+03,3.018142101586199715e+03,3.525486863491848453e+03,3.346572005793577318e+03,2.457751245002701125e+03,1.382193834956144201e+03,4.736392118328319611e+02,-3.232935256179465568e+02,-9.926168700882127496e+02,-1.396704405353602397e+03,-1.668275610477651298e+03,-2.001731737836559432e+03,-2.266636090376762695e+03,-2.297179354701112970e+03,-2.155845865221061558e+03,-1.925073175549081043e+03,-1.616406260753661627e+03,-1.237310975738543675e+03,-7.909340369550894820e+02,-3.074359293271791671e+02,2.044184463007891281e+02,7.931809458016932695e+02,1.448252607026108763e+03,2.191959823308693558e+03,3.015770769466693309e+03,3.441923562698930255e+03,2.954840880208095768e+03,1.886819183937342814e+03,9.207415898672724097e+02,1.514413322906805774e+02,-5.867727129293240296e+02,-1.151355813135700146e+03,-1.439535006781065476e+03,-1.680355603390670694e+03,-2.008598947519068815e+03,-2.243393937862321764e+03,-2.252587613913136011e+03,-2.122702822093866871e+03,-1.911558731660841659e+03,-1.604661155243752546e+03,-1.242724854625510716e+03,-8.264790982490505939e+02,-3.453945933600121521e+02,1.587813527070718465e+02,7.695766532589763074e+02,1.537743824761051656e+03,2.329019546669349893e+03,3.089544058456639505e+03,3.567956869198267668e+03,3.210444722896536405e+03,2.168548428526687530e+03,1.238358508548227292e+03,5.550610542260480997e+02,-1.666280986317747193e+02,-7.323113594025436441e+02,-9.960173101260105568e+02,-1.256664331367788691e+03,-1.621721092520107049e+03,-1.850620457577946581e+03,-1.852955087284338333e+03,-1.746244373894303635e+03,-1.552795685600546449e+03,-1.261495590160889151e+03,-9.388085300503828421e+02,-5.478767009309304967e+02,-4.215521355054812602e+01,4.615770100145140873e+02,9.260089505971095605e+02,1.505367194168708238e+03,2.311299046061787067e+03,3.087042993143627882e+03,3.212354474402581673e+03,2.488414970435223040e+03,1.478792976681650771e+03,6.263746996230752302e+02,-1.285484954036898557e+02,-7.884793201999547136e+02,-1.209050311198365762e+03,-1.450887712265186337e+03,-1.740608495235120245e+03,-2.123963491086619797e+03,-2.390890260122131622e+03,-2.400199681548706394e+03,-2.247475864641025510e+03,-2.060455171344071005e+03,-1.832367193980750699e+03,-1.500764687881084456e+03,-1.087541715554911207e+03,-6.318254689379782576e+02,-8.155819002335562118e+01,5.629984866682376605e+02,1.200361640523928600e+03,1.829630231879642452e+03,2.578156341453228833e+03,3.488208749203239222e+03,4.216898770187211085e+03,4.121489095781902506e+03,3.121751664796532168e+03,1.972753579502983712e+03,1.141308422804086604e+03,3.331137527020977132e+02,-5.502537495260608011e+02,-1.148081261384251320e+03,-1.477153410598171376e+03,-1.905461340245485189e+03,-2.387126940494081282e+03,-2.659671228497876200e+03,-2.723098018624124052e+03,-2.614983032671848832e+03,-2.367065497653704824e+03,-2.108283328090276882e+03,-1.849863573627808591e+03,-1.505152643557344163e+03,-1.036100868931769810e+03,-4.638980723145487559e+02,1.207646811754502778e+02,7.210528299674684831e+02,1.442451621806378398e+03,2.223074889475562941e+03,2.982408184002429152e+03,3.799552927192663446e+03,4.426693145759429171e+03,4.243039441947373234e+03,3.184278668483194906e+03,1.957540830776913481e+03,1.036584930031212707e+03,2.205650945024729026e+02,-6.354030617647780446e+02,-1.262756076396583921e+03,-1.607127943806165149e+03,-1.983529019896167483e+03,-2.416170693638498960e+03,-2.650677197801005150e+03,-2.703274839522232014e+03,-2.707568748926750231e+03,-2.600929921258988088e+03,-2.332119452367918257e+03,-1.976067500026396374e+03,-1.592160743019951951e+03,-1.179340713040884793e+03,-7.086676193782822111e+02,-1.771362464916062436e+02,4.044109920873914916e+02,1.050645688091025022e+03,1.762471746442992298e+03,2.578588983915207336e+03,3.467462811621384390e+03,4.001054914549335535e+03,3.676898462226461106e+03,2.676150672224456230e+03,1.653750984503908057e+03,8.673904437053604397e+02,1.638799120768248940e+02,-4.596933386689336203e+02,-8.784223430297419100e+02,-1.177789065065563364e+03,-1.553797725921552910e+03,-1.970611827099891116e+03,-2.220138101033528983e+03,-2.239257826220901734e+03,-2.107910395314344896e+03,-1.912020585572131949e+03,-1.701210118213082751e+03,-1.419259022176012650e+03,-1.020840568544841062e+03,-5.833152027993985484e+02,-8.763513932540416818e+01,5.458081464547829000e+02,1.202056553224657819e+03,1.819577553231870297e+03,2.561338076918588740e+03,3.340528513922362436e+03,3.608630368893952891e+03,2.983268667008556804e+03,1.855559607696154671e+03,9.236022074608529238e+02,2.731216798945881692e+02,-3.786080895747121531e+02,-9.064567301968941138e+02,-1.158688474408136699e+03,-1.446374433815344219e+03,-1.931105358293045356e+03,-2.303393166844197367e+03,-2.355016201905496018e+03,-2.232999573759238956e+03,-2.106211428871143653e+03,-1.938203528530120821e+03,-1.618851994735107610e+03,-1.194425347221772427e+03,-7.951527678280264126e+02,-3.903284823087138307e+02,1.288252829607343415e+02,7.566119507309722394e+02,1.408574293938121173e+03,2.028166055327430968e+03,2.716368882050657703e+03,3.592119479424057317e+03,4.348211401966293124e+03,4.361373225620069206e+03,3.459016154845326128e+03,2.239708426585575580e+03,1.348270559260594382e+03,7.007271184366339867e+02,-6.047668627834548261e+01,-7.806405494807762580e+02,-1.208804766585121797e+03,-1.577780045392176589e+03,-2.076625301911612951e+03,-2.483019907366970983e+03,-2.673315371015179608e+03,-2.734247449178596980e+03,-2.671935009686304056e+03,-2.503881936282914012e+03,-2.265558924643471073e+03,-1.944584782678522515e+03,-1.600120136789969820e+03,-1.235710230674246532e+03,-7.774961836800806623e+02
1.436328175639034725e+02,6.866447646144217742e+02,1.360342700828817897e+03,2.082685732039204595e+03,2.761285362210255698e+03,3.554159700177320701e+03,4.270875246481251452e+03,4.148386619823834735e+03,3.083734914539850251e+03,1.896337918532412914e+03,1.031313784452248456e+03,3.456172330506768731e+02,-2.068156233424775792e+02,-6.142602162328443001e+02,-9.785754956580341286e+02,-1.374018168075357380e+03,-1.799898847563630625e+03,-2.113095758739073062e+03,-2.130735265892476491e+03,-1.959860074125075698e+03,-1.787737287053316777e+03,-1.540718575276596084e+03,-1.188150597728738148e+03,-8.435850795342529409e+02,-4.820692166613232530e+02,-3.819416860765574029e+01,4.637611186747836882e+02,1.028567555177997065e+03,1.723711183207754402e+03,2.551332452587296302e+03,3.171411485649600763e+03,2.993731846405918986e+03,1.974293662600020980e+03,8.675115262657636777e+02,1.988019278805740555e+02,-2.903455967237676987e+02,-7.978233266957820433e+02,-1.121800976415455352e+03,-1.320504247150090123e+03,-1.654815245965271743e+03,-2.047830187557663976e+03,-2.241444340800232112e+03,-2.181786048568139904e+03,-1.978597880095451501e+03,-1.680815299282966862e+03,-1.331341967808078380e+03,-1.013303093329102467e+03,-6.374266039664238406e+02,-1.034224328763417020e+02,4.885753282183273996e+02,1.103425268789919073e+03,1.763539554594585297e+03,2.463134133199600001e+03,3.286766993233193261e+03,3.936777745668508032e+03,3.679322740840177175e+03,2.522847142192582396e+03,1.370763403095634203e+03,6.294135389426672873e+02,-4.177068848269232149e+01,-7.120198114117907835e+02,-1.156119377139053540e+03,-1.461448992495452785e+03,-1.818398083272827989e+03,-2.174055139906835393e+03,-2.406320810896559578e+03,-2.471560348755903760e+03,-2.370401994071308309e+03,-2.130930794076615257e+03,-1.812187660796471846e+03,-1.464358961115550755e+03,-1.065941839760511812e+03,-5.834759665539613707e+02,-3.570342796747775083e+01,5.596967989661986849e+02,1.183598258874796102e+03,1.838941791291215395e+03,2.634060705559122198e+03,3.566810276451515165e+03,4.154913119081009427e+03,3.770857394468323037e+03,2.579940443162814063e+03,1.447493031068059736e+03,6.979638712425517042e+02,-4.267394874152444117e+01,-7.941530098795144568e+02,-1.241608835551589891e+03,-1.537291376640509952e+03,-1.963506845167748224e+03,-2.365473532731977684e+03,-2.581413615345134531e+03,-2.621256216024867172e+03,-2.427208221257967125e+03,-2.106983620879743739e+03,-1.845567049072417831e+03,-1.537625955987348789e+03,-1.102968413301786995e+03,-6.525696924539270185e+02,-1.472731729491613351e+02,5.042327876656173657e+02,1.214736042178834850e+03,1.922215696077043049e+03,2.701442470342143679e+03,3.467742682361798416e+03,3.731810017568901458e+03,3.079777149911848937e+03,1.896836096125311087e+03,9.166646346670788716e+02,2.710983321100233070e+02,-2.638003034392231712e+02,-6.837453162657110397e+02,-9.680493750806733715e+02,-1.272488195645784799e+03,-1.680382550461208666e+03,-2.028000677029022427e+03,-2.102720751178508181e+03,-1.929950080863040967e+03,-1.644341319997092569e+03,-1.300125273942536978e+03,-9.597415899312268266e+02,-6.008538917585910895e+02,-9.079308021899078085e+01,5.192466280976385633e+02,1.102719520513246152e+03,1.806852741742857688e+03,2.707481258113693002e+03,3.241424524366639616e+03,2.773807345264891410e+03,1.660358623665022378e+03,7.547100526781035796e+02,1.633524280196694463e+02,-4.323581156829185375e+02,-9.163233619864359980e+02,-1.169664549221184643e+03,-1.475395846754515333e+03,-1.909558381540379287e+03,-2.175175469949938815e+03,-2.138178904291911749e+03,-1.920546207466796204e+03,-1.635733903492107174e+03,-1.319284146288452575e+03,-9.683976813165586464e+02,-5.569680133511753866e+02,-7.291255838738828743e+01,4.655373625745274353e+02,1.055737479868114406e+03,1.710451829664282286e+03,2.475704374865179034e+03,3.354955512825867572e+03,3.941813234830040528e+03,3.601233341345945064e+03,2.437388910076964748e+03,1.277116711796148138e+03,4.806726241574093592e+02,-2.378873962999298328e+02,-9.568936041031846571e+02,-1.471680555943042691e+03,-1.802136739012824819e+03,-2.138861166778045572e+03,-2.478331312761324625e+03,-2.655101440869977978e+03,-2.639541683540971462e+03,-2.506774419330594355e+03,-2.256158052795279218e+03,-1.944017359357802889e+03,-1.610944411662051152e+03,-1.107416449342360920e+03,-4.673624756279867256e+02,9.970908299280745268e+01,6.881086735907673528e+02,1.408318122302104484e+03,2.159610780072593116e+03,3.031682896716752111e+03,3.942849674477303779e+03,4.190166077901873905e+03,3.402265809218310096e+03,2.226840408946268781e+03,1.336651863988375908e+03,6.449078300019938297e+02,-7.253532291012129463e+01,-6.459471299049421305e+02,-9.716304535117189971e+02,-1.328844084849931278e+03,-1.828638415902428278e+03,-2.189872205562920499e+03,-2.286375593222424868e+03,-2.211336440381436205e+03,-1.995224799612039533e+03,-1.725218903742083285e+03,-1.507180248312712138e+03,-1.246747573150119251e+03,-7.924943923254171523e+02,-1.908644536921009944e+02,4.038085496898444831e+02,9.961585973391612470e+02,1.728351126619380011e+03,2.637544010793188590e+03,3.396938311573755527e+03,3.363100522920101866e+03,2.408856733181552045e+03,1.284572839260100409e+03,4.925680386479639878e+02,-1.788282156452621052e+02,-7.669624044210713691e+02,-1.096661478734479260e+03,-1.344644753672920615e+03,-1.726332555940013435e+03,-2.134637080299837180e+03,-2.364067995298601545e+03,-2.311849585272674176e+03,-2.059678390890509945e+03,-1.804838333231567049e+03,-1.562871626927700845e+03,-1.192668347164067654e+03,-7.030962531439744225e+02,-1.880380140010580021e+02,3.740253480331564901e+02,1.014891001822695898e+03,1.669916095746146311e+03,2.372071284530701632e+03,3.289442152854840060e+03,4.175420883568860518e+03,4.248757025560726106e+03,3.262235062232035943e+03,2.017386302249043183e+03,1.169267550805767769e+03,4.511128793310734864e+02,-3.961919374945211985e+02,-1.079001649120203865e+03,-1.452710916883792834e+03,-1.774235306160295750e+03,-2.217498427885483579e+03,-2.617994682723568076e+03,-2.714780209188621029e+03,-2.568638541426454594e+03,-2.414052170295224641e+03,-2.227587052554202273e+03,-1.918686669326793208e+03,-1.539298142828430173e+03,-1.096051220761078866e+03,-6.017263727804507880e+02,-1.085556684226427251e+02,4.891944979287877686e+02,1.253067262133062968e+03,2.051884784537536689e+03,2.920946584099563097e+03,3.828341182551237580e+03,4.182252882689119360e+03,3.555799280949334388e+03,2.416528113706634485e+03,1.404351367475485176e+03,6.126467831846888430e+02,-8.198250844987876462e+01,-6.787934600432213301e+02,-1.157923596849867863e+03,-1.566669060634927973e+03,-1.954854651906020536e+03,-2.273024435537902718e+03,-2.422248912983419359e+03,-2.384183991762994538e+03,-2.194464887570081828e+03,-1.910518253570939123e+03,-1.604662825054688483e+03,-1.267604996977068595e+03,-8.304525760015728792e+02,-2.776254546997084844e+02,3.442429758265161581e+02,9.691698850334242934e+02,1.629419090347119891e+03,2.443590354945389208e+03,3.254749339235326261e+03,3.510672490860707967e+03,2.855634447899124552e+03,1.693348158429285377e+03,7.374936438886102223e+02,1.170592814904957208e+02,-4.711150927398507520e+02,-1.000412760649157121e+03,-1.287127061292972940e+03,-1.510867359253386667e+03,-1.857164695245968915e+03,-2.125624325199124542e+03,-2.133934282593361786e+03,-1.957406801523090962e+03,-1.646890425840001399e+03,-1.223665426053501960e+03,-8.096124040386218894e+02,-4.312914360848701563e+02,5.645872947821885646e+01,6.889949774679093935e+02,1.329327281149311148e+03,2.001158110769211589e+03,2.882372695912205927e+03,3.736545506835652304e+03,3.819215387362918591e+03,2.842894935493428875e+03,1.540351497871653919e+03,6.302189230896838126e+02,-4.188565363311397505e+01,-7.457888625854911879e+02,-1.279329060728631021e+03,-1.578122874413783848e+03,-1.921773098796108570e+03,-2.333557747162355554e+03,-2.547042013324911295e+03,-2.534053432589377280e+03,-2.445594133316671105e+03,-2.246103260021579899e+03,-1.898506065265734151e+03,-1.513532455265138651e+03,-1.075031464838796865e+03,-5.210268644111488356e+02,4.675270348911692508e+01,6.342954651993068182e+02,1.362916830180819034e+03,2.131142743029383837e+03,2.885013538542122660e+03,3.830813165044527068e+03,4.593839851859076589e+03,4.167029810099467795e+03,2.658944976546637008e+03,1.361933912883784387e+03,5.983111478481173435e+02,-2.264351589416943398e+02,-1.032987983193117088e+03,-1.525290704056265895e+03,-1.948085577372779426e+03,-2.468987613636593778e+03,-2.921254886135232027e+03,-3.151073017434123813e+03,-3.108782994496495576e+03,-2.868379421036042913e+03,-2.558571843748522952e+03,-2.196521909133594818e+03,-1.745247654926825362e+03,-1.171368868229398004e+03,-4.557220603961816323e+02,3.053913559884888400e+02,1.047689379144060467e+03,1.891033493820849799e+03,2.870359929990981982e+03,3.888291489324782560e+03,4.995810194430113370e+03,6.024911614192805246e+03,6.343437034145395955e+03,5.730232901141862385e+03,4.389551010103935369e+03,2.110545305375710086e+03,-9.359419899860915848e+02,-3.552246823274193957e+03,-4.820621125527390177e+03,-4.870405235932849791e+03,-4.375100828870870828e+03,-3.940360493757673794e+03,-3.624135460437707479e+03,-3.199266703383477306e+03,-2.685232391039433423e+03,-2.160851041945479665e+03,-1.661268838543693846e+03,-1.281276203188355566e+03,-9.337966040145045099e+02,-4.509139984542126740e+02,1.228356624610219114e+02,7.293843246996020753e+02,1.399971154686842510e+03,2.145220969922318545e+03,3.021426418533033939e+03,3.893358879743980197e+03,4.139597486128693163e+03,3.336952468519641116e+03,2.042191510418854932e+03,1.034576356448470051e+03,2.857436154699784083e+02,-4.506450653567818563e+02,-9.553342649118011423e+02,-1.194961677339204471e+03,-1.546226226021535467e+03,-2.050951439812071385e+03,-2.375684485720821158e+03,-2.353817042914135072e+03,-2.101314729856379927e+03,-1.857098250899898630e+03,-1.677250249264676995e+03,-1.341470878190692702e+03,-7.949569011399302099e+02,-2.281074725724690779e+02,3.632018404845840678e+02,1.083485280600561964e+03,1.815326958465837151e+03,2.540650961744600409e+03,3.468655952413960676e+03,4.314746137306414312e+03,4.263104083003809137e+03,3.187143243011318646e+03,1.905904202315821976e+03,9.600105734804503754e+02,1.907846145443411388e+02,-5.366276071816221247e+02,-1.083300235284011706e+03,-1.443184887450976248e+03,-1.832002360177707942e+03,-2.280942058781274227e+03,-2.563407860376401004e+03,-2.594332458731166753e+03,-2.489445995628213950e+03,-2.308816494305203378e+03,-2.037052840233908910e+03,-1.688396248320625546e+03,-1.297715060618847929e+03,-8.625422278183209528e+02,-3.594733481154156607e+02,2.205627729339051939e+02,8.768239076288474507e+02,1.582437192080546538e+03,2.362148111435501050e+03,3.225208719854193077e+03,3.753421615919667602e+03,3.317590983161385338e+03,2.031376285648683051e+03,7.459367661535330853e+02,-1.297618356071197923e+02,-9.864402894914685476e+02,-1.911315684711648146e+03,-2.320347502726268431e+03,-2.143341047206580697e+03,-1.986192606263578000e+03,-1.961207841879541320e+03,-1.772599302445701596e+03,-1.502000485508760676e+03,-1.316797634093171837e+03,-1.144461994009182945e+03,-9.297743912341921941e+02,-6.543025963263307858e+02,-2.769203866198795367e+02,1.692619492605581968e+02,6.465330468615406971e+02,1.174523124920046939e+03,1.787026321075542000e+03,2.560497416779637661e+03,3.476534894136888852e+03,4.120392168529522678e+03,3.885238008849538801e+03,2.783739669154230342e+03,1.553853540705746809e+03,6.433598547887927452e+02,-9.819916819020261300e+01,-7.039999305084995740e+02,-1.049393848171053605e+03,-1.298342391824030528e+03,-1.678209251313072400e+03,-2.067854236248998859e+03,-2.232926935149967903e+03,-2.179982928874361733e+03,-1.967435542608734295e+03,-1.599086444747566020e+03,-1.196961817524286744e+03,-8.248545739658203502e+02,-3.606005045371276765e+02,2.455303307003654254e+02,9.129514123023117236e+02,1.652038680899308929e+03,2.544863829508947674e+03,3.250934378936970006e+03,3.036504741496732095e+03,1.902125400994641950e+03,7.109714273022034376e+02,-1.633289035352110545e+02,-9.537969682133530114e+02,-1.598135675808138330e+03,-1.945757096713280362e+03,-2.190447561465558010e+03,-2.494570972775677546e+03,-2.712924845189885673e+03,-2.678805227142351214e+03,-2.459749188293787029e+03,-2.160771420874788873e+03,-1.786924705524758565e+03,-1.386988405998938106e+03,-9.791553879189500549e+02,-5.093768174460790306e+02,2.040993471498273948e+01,6.288966412444925709e+02,1.351179060293850398e+03,2.215732029984182645e+03,3.219373952235983779e+03,3.877636076959271577e+03,3.505216026884258099e+03,2.365627679577783056e+03,1.308316598550624576e+03,4.952342423487253882e+02,-2.532745565086756869e+02,-7.728974625651043198e+02,-1.040345970714473424e+03,-1.314682296487455915e+03,-1.600923182523313244e+03,-1.655943243348215674e+03,-1.426400559384170720e+03,-1.069774114561710576e+03,-5.530766313320398240e+02,2.342784866552161986e+02
5.111407063858371203e+01,4.253647281096663164e+02,1.007652579931555238e+03,1.653953200500717458e+03,2.237665102174536514e+03,2.874628262584804816e+03,3.700169147076019726e+03,4.590672041948769220e+03,4.909891436266404526e+03,4.113814611181249347e+03,2.713487460573177941e+03,1.533336505985097574e+03,5.737773321667101527e+02,-3.440096642320663705e+02,-1.000547430188696808e+03,-1.382375620969033662e+03,-1.751553594679777461e+03,-2.172575454916373928e+03,-2.482433399966527304e+03,-2.544626147771509750e+03,-2.433192767521464248e+03,-2.242369756797721493e+03,-1.923879588199965610e+03,-1.507573505219607569e+03,-1.042543100500921128e+03,-4.582325825530467682e+02,2.322901933403279600e+02,9.993102634746865078e+02,1.920686281592547402e+03,2.773123786871582524e+03,2.924271295404922967e+03,2.140558221152205533e+03,1.021293529512974601e+03,1.618639088640107104e+02,-4.592773831187240035e+02,-9.324819870002991138e+02,-1.167762804501915980e+03,-1.290722346715180265e+03,-1.485697982725971997e+03,-1.695625269140520686e+03,-1.795712913987383217e+03,-1.673165136063666523e+03,-1.261761043047974226e+03,-7.054038589044196215e+02,-2.136381552798806069e+02,2.692717121468240293e+02,9.032395894417657018e+02,1.611618029257633225e+03,2.404294392388537744e+03,3.327598760883211980e+03,3.695122618829377188e+03,2.847434050414056856e+03,1.447284188274747521e+03,4.185429442084235916e+02,-2.875224685571757846e+02,-8.887692623889408878e+02,-1.255297937320405936e+03,-1.454481468685928121e+03,-1.716054469483357479e+03,-2.004757962130147462e+03,-2.082399197982229452e+03,-1.868509494975974803e+03,-1.545244995839180547e+03,-1.213794118089164385e+03,-7.814826194385954068e+02,-2.501845351544889695e+02,3.158015622902181576e+02,8.958645913310241440e+02,1.517311734141334000e+03,2.359918773665936442e+03,3.267223020647177691e+03,3.436445860083759726e+03,2.517530892176189809e+03,1.213999518298577641e+03,1.864043768766659355e+02,-6.001167483992264806e+02,-1.292868635746342306e+03,-1.793088612887786439e+03,-2.018535132264873937e+03,-2.121917916513357341e+03,-2.277683262513432510e+03,-2.383204201524729342e+03,-2.299814938789917505e+03,-2.109377177699172535e+03,-1.826227764876222409e+03,-1.371679129335069547e+03,-8.639881695527850525e+02,-4.196616267730170193e+02,7.660047732312375501e+01,7.062895254372812133e+02,1.391173071665238467e+03,2.096742244726711760e+03,2.873968848109586361e+03,3.737304580950005402e+03,4.426631395172030352e+03,4.351779992011686772e+03,3.322583170622417128e+03,1.984495073840613259e+03,9.079718421906256935e+02,5.267347543320056502e+00,-8.158323876967450587e+02,-1.407479548830926205e+03,-1.844514691297104491e+03,-2.303159581808840358e+03,-2.682785649817593821e+03,-2.861583143906544592e+03,-2.914252492722938314e+03,-2.842785233794652413e+03,-2.561166732376432719e+03,-2.156934462843302754e+03,-1.758783053054307629e+03,-1.304064087714816651e+03,-7.411000847802133649e+02,-1.672383753114866067e+02,4.322234121401083939e+02,1.180244159756333374e+03,2.014749472962417713e+03,2.878112471621867371e+03,3.800424932327599890e+03,4.306990780666134015e+03,3.741611862471818313e+03,2.451122393735282003e+03,1.338855143205849799e+03,5.477858428396997397e+02,-1.922957330688180946e+02,-7.682006746102109673e+02,-1.087149133473220900e+03,-1.375754166580641140e+03,-1.754483255543050063e+03,-2.086004789882698333e+03,-2.216495299986509508e+03,-2.116339515217481221e+03,-1.863944562316423344e+03,-1.567033235208422411e+03,-1.243935862437548394e+03,-8.428196500440011505e+02,-4.023301672050436650e+02,6.115492958063424567e+01,6.743096150866946346e+02,1.411242855990624776e+03,2.152210942355072802e+03,2.946334514674774709e+03,3.485173424754472762e+03,3.077496749399993860e+03,1.830767026381042342e+03,6.687038469476658520e+02,-7.007368584198746930e+01,-7.266976191887027881e+02,-1.283616290819797086e+03,-1.525662709052840455e+03,-1.705498749212265921e+03,-2.080318679347414218e+03,-2.428418662008479259e+03,-2.496527866990474649e+03,-2.326023999527202704e+03,-2.049079754427685657e+03,-1.729840162999936865e+03,-1.332344713521700442e+03,-8.005437442425486552e+02,-2.255825343151962556e+02,3.182095088273628107e+02,9.498044325426942578e+02,1.632598111756211210e+03,2.254422137930415374e+03,3.128756763671858153e+03,4.304904230623637886e+03,4.849547470270571466e+03,4.046285853742475410e+03,2.537602182444450136e+03,1.347605568037300600e+03,5.565390301706130458e+02,-2.370684091919272305e+02,-9.560306606855734799e+02,-1.435514176486933138e+03,-1.877729368042316992e+03,-2.367882348894246661e+03,-2.739967090486372854e+03,-2.924132381212876680e+03,-2.944645052297086750e+03,-2.804557944123685047e+03,-2.529357158029133188e+03,-2.185211685858987948e+03,-1.818498439666502918e+03,-1.380232241688713657e+03,-8.263770338030899438e+02,-2.220124442008143433e+02,4.139146216670698095e+02,1.117963938374474083e+03,1.865625912201120627e+03,2.679589167370262658e+03,3.623751737464934195e+03,4.477452265282884582e+03,4.605271633102038322e+03,3.652031259223472262e+03,2.222216194219923182e+03,1.105875498163482234e+03,3.081331337032048623e+02,-4.359130916703114735e+02,-1.033451982855940514e+03,-1.404963227086960615e+03,-1.756732919472004824e+03,-2.232069410955578860e+03,-2.638550410792878665e+03,-2.757344072123344631e+03,-2.680220251674606970e+03,-2.524240228779664903e+03,-2.234344778667948958e+03,-1.853053053394268773e+03,-1.479443525072175134e+03,-1.054626861398089432e+03,-5.295228065069711647e+02,2.653117691436955283e+01,6.162391100858950495e+02,1.314611906382612005e+03,2.075484985527695244e+03,2.878460222548518232e+03,3.796658966430894452e+03,4.361250311734898787e+03,3.749869766375993095e+03,2.246028530415418572e+03,1.015537915663944887e+03,3.332679852339476838e+02,-2.927482774024920218e+02,-8.770302968660987517e+02,-1.230282608408185979e+03,-1.576596186455042698e+03,-2.070441195004503243e+03,-2.470953088262412166e+03,-2.582264524247465488e+03,-2.467017544995063872e+03,-2.224729786958081149e+03,-1.902297192584328059e+03,-1.567235484607874241e+03,-1.212510219066111404e+03,-7.060667393486630772e+02,-3.911286386847018548e+01,6.265050298889831311e+02,1.231143084699694782e+03,1.922067728165064636e+03,2.866793093834508909e+03,3.846143708711025283e+03,4.156422554714453327e+03,3.386959478467222652e+03,2.039870328638999581e+03,8.707957962970563131e+02,6.625491810864923536e+01,-5.536910992822015487e+02,-1.057369414202285952e+03,-1.415357255194713161e+03,-1.711182266029491075e+03,-2.071007429395298459e+03,-2.398032269847294174e+03,-2.507839095806826208e+03,-2.409144899173076283e+03,-2.165081431178792627e+03,-1.825737346474693595e+03,-1.484739163262624743e+03,-1.111483504696142973e+03,-5.970204296206298977e+02,7.467517124752589552e+00,6.116586282921737165e+02,1.277936984454519006e+03,2.015550221018699176e+03,2.792399227910612353e+03,3.746507744426428872e+03,4.579897476732330688e+03,4.390017216246909811e+03,3.047703189134083004e+03,1.576007230164744669e+03,6.233108302577304585e+02,-1.218900844635858220e+02,-8.896374549587815181e+02,-1.466778093532925141e+03,-1.872732563395979014e+03,-2.337958919800224066e+03,-2.771613029232266399e+03,-2.985252234840382698e+03,-3.003186552886788832e+03,-2.868693556517681827e+03,-2.607281167919935797e+03,-2.273607210863860473e+03,-1.880990199497326103e+03,-1.421823236246953911e+03,-8.644881248491357155e+02,-1.968334906488827301e+02,5.087143114154396244e+02,1.237403210932395268e+03,2.077021895640861203e+03,3.049896681343919681e+03,4.020603459419175124e+03,4.555046143995574312e+03,4.090308623482860639e+03,2.790527919741188725e+03,1.558504576266529057e+03,7.545458851361551069e+02,2.799740803733743633e+01,-6.468132103154501920e+02,-1.062601062357085311e+03,-1.392080955441298102e+03,-1.812020773276928594e+03,-2.195758195767297821e+03,-2.386156668016733875e+03,-2.319042973975663699e+03,-2.092618408499002726e+03,-1.859296450546579081e+03,-1.587010540861537947e+03,-1.249261042241138057e+03,-8.730937192424146360e+02,-3.534017035197690006e+02,3.168053938649765655e+02,9.658717720088020542e+02,1.561355163214485856e+03,2.314572889498144832e+03,3.289992630046838713e+03,3.878672588533299859e+03,3.342418399067982136e+03,2.010659110019036916e+03,8.475966995817029783e+02,8.009647027411972431e+01,-5.936914429534052715e+02,-1.137473437995188988e+03,-1.448675043416878452e+03,-1.714946417090463910e+03,-2.070728506301742527e+03,-2.415573107328174956e+03,-2.567395130739173965e+03,-2.443569611625249308e+03,-2.142385388087264801e+03,-1.793236575744948141e+03,-1.431131706848223757e+03,-1.025447121621472206e+03,-5.260490240199547998e+02,5.589553304611717977e+01,6.673081795305955666e+02,1.304081630794630655e+03,2.007793831916506861e+03,2.875739245386341281e+03,3.886777542620067834e+03,4.536928342602775047e+03,4.150278495978411229e+03,2.857425423330516423e+03,1.549996149495625787e+03,6.195020355978400630e+02,-2.085672405253729949e+02,-9.225946869017423069e+02,-1.368120839788673720e+03,-1.754015330323297576e+03,-2.211845232995518472e+03,-2.616631309011955182e+03,-2.867304776999492788e+03,-2.870425795298302546e+03,-2.633759726254618272e+03,-2.337758659114975217e+03,-2.016350667112338215e+03,-1.556128779276705927e+03,-1.010178003837979190e+03,-4.532702782194744486e+02,1.914516312751744636e+02,8.960017837578093349e+02,1.581780403308866880e+03,2.424734154992181175e+03,3.487777353581452189e+03,4.212166191619630808e+03,3.943274468998214616e+03,2.839412602784069804e+03,1.659586881589345239e+03,7.945817709831570710e+02,1.005104789598453863e+02,-5.121216439165229986e+02,-9.553042310446076044e+02,-1.289007841436683066e+03,-1.675322270564476639e+03,-2.071104640155313973e+03,-2.279516016356085856e+03,-2.265796890062457351e+03,-2.135626057380974544e+03,-1.891291656652490474e+03,-1.524415451853084278e+03,-1.120196456696073255e+03,-6.935199522558011722e+02,-2.077875708394762455e+02,3.483093489949952186e+02,1.007159683596158857e+03,1.751101332879428810e+03,2.574504991553824311e+03,3.440900057558201297e+03,3.839188861187123621e+03,3.163198002894466754e+03,1.764333242012321080e+03,5.662517755839676283e+02,-1.811831202452468688e+02,-7.890142528022182660e+02,-1.297813679764536801e+03,-1.598910946331551031e+03,-1.871669828836526904e+03,-2.250339691714021683e+03,-2.554247987546919830e+03,-2.649262659222597449e+03,-2.552769097598674307e+03,-2.298308707198927095e+03,-1.975329507166138455e+03,-1.598888779593336494e+03,-1.089140677182522268e+03,-5.098444243113154926e+02,5.918194517996408877e+01,7.280635908689637290e+02,1.555524217734114245e+03,2.479646036669564637e+03,3.507214343931074836e+03,4.319506662322358352e+03,4.147109524233206685e+03,2.924866533258135405e+03,1.624276436321242727e+03,7.780558373729163577e+02,2.623744430319788989e+01,-7.165992987161631618e+02,-1.125294091397679040e+03,-1.315951363589932953e+03,-1.639093371718854542e+03,-1.993226311202469788e+03,-2.100743814045846648e+03,-1.973780234713092341e+03,-1.680533152867037415e+03,-1.203117616248942113e+03,-6.671640098291343293e+02,-1.510762864899176634e+02,4.648304765503278304e+02,1.115567376285275714e+03,1.645433017333188673e+03,2.108157674787966698e+03,2.415660893152451990e+03,2.429674838876600461e+03,2.459447465783205189e+03,2.625149739179101289e+03,2.320503730131910743e+03,1.284078342606296019e+03,1.751540207926618677e+02,-4.969320741660279168e+02,-9.647203963710901462e+02,-1.512750170471375668e+03,-2.000898109591886623e+03,-2.291951790941899162e+03,-2.595183432076509234e+03,-3.031704359219513208e+03,-3.348878245433571010e+03,-3.356128950987100779e+03,-3.114293083824505629e+03,-2.653118399725341078e+03,-2.023414133473121410e+03,-1.419982983802836316e+03,-8.706628590636142917e+02,-1.983595848810616644e+02,5.723400929249446563e+02,1.285577947270599452e+03,2.013075287667370731e+03,2.917359432079721955e+03,3.936971183324930280e+03,4.608167735383931358e+03,4.275376369855784105e+03,2.960959734295808630e+03,1.553348913781606825e+03,6.319200434838624005e+02,-2.364282044883896106e+01,-6.019676368675734466e+02,-1.026966431875984199e+03,-1.398287280227879364e+03,-1.817890349854282704e+03,-2.135505129872197813e+03,-2.180435140043936372e+03,-1.945298848978416800e+03,-1.603592723432862840e+03,-1.304133003881092236e+03,-9.511445912152198616e+02,-4.775800080288985896e+02,2.504087133913878915e+01,5.886275994253687713e+02,1.238061994078656880e+03,1.891385097354782374e+03,2.713758309301536428e+03,3.812260975971608786e+03,4.558938510691902593e+03,4.155081112069572555e+03,2.785273978976111266e+03,1.365506301599602921e+03,3.297650606354358160e+02,-5.332563900062938274e+02,-1.332198307262889330e+03,-1.931669632139790792e+03,-2.297014824483015218e+03,-2.489717136884773936e+03,-2.562520933613944180e+03,-2.574661792067974602e+03,-2.505190453553356747e+03,-2.346200282137425347e+03,-2.215938759141467472e+03,-2.083362753836936463e+03,-1.802635552206709008e+03,-1.437537898596440755e+03,-1.066870334562210246e+03,-6.412326686166754826e+02
-1.049596866554426242e+02,-1.417958909157439166e+03,-2.198826961978726104e+03,-2.762352488197398543e+03,-3.332484042761722321e+03,-3.611946853732711133e+03,-3.657559849448904970e+03,-3.819048299179482001e+03,-4.037326521545567175e+03,-4.087765475984672321e+03,-3.936175147578273936e+03,-3.604873938548941169e+03,-3.157066876340513318e+03,-2.694560447363162893e+03,-2.210093315702928521e+03,-1.632285744559458863e+03,-9.971774694219855064e+02,-3.621224698250612164e+02,3.417837676131639455e+02,1.157969796215130145e+03,1.998661187197456002e+03,2.835541539963654941e+03,3.808355410178447073e+03,4.873058793263925509e+03,5.416666526608003551e+03,4.830031843954731812e+03,3.434285804174832265e+03,2.087994499729984909e+03,1.078922642930747770e+03,1.723184822037238746e+02,-5.871453453939166138e+02,-9.711572643890390282e+02,-1.183917019700927995e+03,-1.588991452942716023e+03,-2.065978894656867851e+03,-2.274202946535392584e+03,-2.228359210262614397e+03,-2.085037797811378368e+03,-1.815143099643119058e+03,-1.461968136308773865e+03,-1.159211400889175593e+03,-8.001489954667356415e+02,-2.317785928637964332e+02,4.362106912920498871e+02,1.053018468091082468e+03,1.631244385940271286e+03,2.347693046590497033e+03,3.277524399692538282e+03,3.806262536243592876e+03,3.159984766824064536e+03,1.740523414405470930e+03,5.817484329100298055e+02,-1.554846279532878270e+02,-8.257188205893615986e+02,-1.343466445213114184e+03,-1.627814461640043646e+03,-1.968906916003193828e+03,-2.389018541710192949e+03,-2.585021303581485427e+03,-2.521808731723825986e+03,-2.355676533338388708e+03,-2.072878079815049205e+03,-1.648670026372615212e+03,-1.192359284856254135e+03,-7.312427184246566867e+02,-2.190427120703189416e+02,3.074337052124052434e+02,8.709101061341842751e+02,1.531041759542482396e+03,2.240025199794579748e+03,3.065814760861783725e+03,4.009265690094433921e+03,4.444577933851512171e+03,3.732358959353843602e+03,2.301596487322080975e+03,1.062582655921657533e+03,2.008861673770928746e+02,-5.297124219028107746e+02,-1.104075877422030317e+03,-1.484306786984023347e+03,-1.837302530257956050e+03,-2.229290570261509401e+03,-2.539348975889402482e+03,-2.663667824980424484e+03,-2.627494647691603859e+03,-2.480669267395704992e+03,-2.206653058329437499e+03,-1.842018733304424813e+03,-1.460992622776662074e+03,-1.014641312252028911e+03,-4.581956258066121563e+02,1.350199628773551694e+02,7.351681580327041274e+02,1.375975412764917110e+03,2.074913286020359919e+03,2.904398415361109073e+03,3.857761158983469613e+03,4.425747244004066488e+03,3.886446749424223071e+03,2.450945360758414608e+03,1.167818966175374499e+03,4.074079489486272223e+02,-2.765399402077204059e+02,-9.973603561790330332e+02,-1.475058801865039641e+03,-1.725573026931894674e+03,-2.029021957580049957e+03,-2.397123107601432366e+03,-2.585403010303039991e+03,-2.542449207922549704e+03,-2.360207398771014596e+03,-2.048506938726048702e+03,-1.658779225788895246e+03,-1.282282186566110568e+03,-8.904864380245383018e+02,-3.708812562915301783e+02,2.738156625063879801e+02,9.225755264406799370e+02,1.566783842989013465e+03,2.283132005448130258e+03,3.136317675359322038e+03,4.038594572918611448e+03,4.346602282764403753e+03,3.462282948888986539e+03,1.967776137711829278e+03,8.427301785204863336e+02,1.066621679879059457e+02,-5.958418440206675086e+02,-1.145399391049822952e+03,-1.458663485609386498e+03,-1.814968399011424481e+03,-2.311534793230493051e+03,-2.695476792268935242e+03,-2.788730835215331808e+03,-2.660691528520490920e+03,-2.432195705232504224e+03,-2.132431619615281761e+03,-1.774001796925853341e+03,-1.402832861238745181e+03,-9.520756730960966934e+02,-3.300926835905687540e+02,3.414123940141380444e+02,9.738986101898580046e+02,1.673718397798355454e+03,2.457030305103523915e+03,3.332012421054387687e+03,4.281855751165825495e+03,4.728551792190961351e+03,4.007304511665159225e+03,2.516733129415601979e+03,1.218598235239865062e+03,3.262625066855825935e+02,-4.567483715389057579e+02,-1.106727845245075514e+03,-1.519119310608509522e+03,-1.869917350878138677e+03,-2.274979677549094504e+03,-2.608730347409537899e+03,-2.781533122580945019e+03,-2.806595858334392233e+03,-2.661363927339927159e+03,-2.379520902061784909e+03,-2.068197262596639121e+03,-1.700492445763043179e+03,-1.184711091647934154e+03,-5.733937824630863815e+02,4.098847827268980382e+01,6.830004405512387393e+02,1.395745707811881175e+03,2.130231208110858006e+03,2.855109664663970761e+03,3.708444616481894627e+03,4.699440510929443917e+03,5.078881764305866454e+03,4.011003004401453836e+03,2.170769832862175008e+03,8.956054805503505349e+02,1.496153233555141924e+02,-6.640260702792729717e+02,-1.352355810734864917e+03,-1.744529314064669961e+03,-2.124616138551162294e+03,-2.584628619066390002e+03,-2.955058259849126898e+03,-3.094293922314007432e+03,-3.032120835557805549e+03,-2.875643283523711489e+03,-2.579472702254223805e+03,-2.140833944633181545e+03,-1.726676492577221779e+03,-1.324959416963418562e+03,-7.752956622356268781e+02,-1.061106586077303291e+02,5.723768127288749383e+02,1.296044888897858073e+03,2.087893087435615143e+03,2.905577607462093511e+03,3.830671885092056527e+03,4.619253594371810323e+03,4.448930486539815320e+03,3.122356782686121278e+03,1.611228485930445004e+03,6.320713362068660217e+02,-6.202416363374788943e+01,-7.022346182329913518e+02,-1.110714710273361106e+03,-1.345336827034557928e+03,-1.737357789040451280e+03,-2.254815412510980877e+03,-2.545598980989115262e+03,-2.536863094830662703e+03,-2.389320495839506748e+03,-2.127964642908887072e+03,-1.776390838709972286e+03,-1.422439921623658620e+03,-9.937733842079633177e+02,-4.043896059833610366e+02,2.446235936608745760e+02,8.597840225249773312e+02,1.480471005949211758e+03,2.219236185818747799e+03,3.168143216792097519e+03,4.093826470544784570e+03,4.303204670568386973e+03,3.350652033706614020e+03,1.810025631033355467e+03,6.388653214927705903e+02,-2.450967909371661335e+01,-6.234340191261796917e+02,-1.216688619619310884e+03,-1.610349546378254672e+03,-1.926735810206380393e+03,-2.343228354145001504e+03,-2.693890048820134325e+03,-2.744399392621766310e+03,-2.540021521310515709e+03,-2.262651019548916793e+03,-1.956376796229028287e+03,-1.560553109827098979e+03,-1.093941986749987336e+03,-6.165067971690947388e+02,-1.004762478604127409e+02,5.047048066093821035e+02,1.206459401619316850e+03,1.955508059995009262e+03,2.705008701795068191e+03,3.565314275389095656e+03,4.344499490376058930e+03,4.194742633645066235e+03,2.869255993387516355e+03,1.419333912134427010e+03,5.591755073764239796e+02,-1.291582861512210911e+02,-9.070338862567734850e+02,-1.455027036063735068e+03,-1.714817542617465278e+03,-2.004921871879292212e+03,-2.410521083214433474e+03,-2.677156734941107970e+03,-2.678668074283551505e+03,-2.533394961060131209e+03,-2.300270190249408188e+03,-1.960447622125815997e+03,-1.535116309964131233e+03,-1.038537468496470865e+03,-4.783128592172357685e+02,1.380001554740528036e+02,8.140009637824333595e+02,1.553219234550489546e+03,2.399623644483180215e+03,3.355762013312407362e+03,4.053638928092122114e+03,3.794834511741097231e+03,2.519478297095085964e+03,1.192589173370601657e+03,4.493009515949854631e+02,-8.458839922959282376e+01,-6.582530350812023698e+02,-1.018768777251657298e+03,-1.207600874999768621e+03,-1.521831033065297561e+03,-1.903544609281560042e+03,-2.056335303991912497e+03,-1.894188127200929330e+03,-1.577819383725789976e+03,-1.250831182816917817e+03,-8.910018356210747470e+02,-4.370928304729628735e+02,1.156694455744258221e+02,7.367589726047605154e+02,1.352588683089396227e+03,2.045812592467457989e+03,2.937441200388554989e+03,3.463623863315510789e+03,2.830992110579715245e+03,1.422455353367887938e+03,2.755557493981952462e+02,-4.206053230633480666e+02,-9.930787658771747601e+02,-1.410323717662844956e+03,-1.592713741265622502e+03,-1.748883291373367456e+03,-2.031835269796117927e+03,-2.305612292034030816e+03,-2.348392380590834819e+03,-2.116748995964651840e+03,-1.747909095879068218e+03,-1.346272696979234070e+03,-8.957989269030456398e+02,-3.641072330871286340e+02,2.482799374788979776e+02,9.238113348391771069e+02,1.628810347109692657e+03,2.379761057433252063e+03,3.277908295180255664e+03,4.137223735802274859e+03,4.195754006619528809e+03,3.063250527622185018e+03,1.580271789389799324e+03,5.733206190786389698e+02,-2.209640866179681780e+02,-1.054403725894935633e+03,-1.602222016587501685e+03,-1.877222351124046099e+03,-2.210315189516666123e+03,-2.560634638134675242e+03,-2.733602851843940698e+03,-2.694371738810605166e+03,-2.450734249178772188e+03,-2.118504972569670826e+03,-1.792158457400814314e+03,-1.331932013568286948e+03,-7.141447337619999871e+02,-1.163225764300583478e+02,4.778864217774593044e+02,1.180820182352085340e+03,1.940056770136591922e+03,2.771982713933799459e+03,3.740442330237936858e+03,4.338785963235299278e+03,3.785694578230422394e+03,2.345252116426519024e+03,1.078397244955429187e+03,2.590346862605130127e+02,-4.879717040362681928e+02,-1.107699724047809923e+03,-1.434145834596944496e+03,-1.672811672569348048e+03,-1.989454014241031018e+03,-2.286592030914498082e+03,-2.358978003248915229e+03,-2.102118186233132747e+03,-1.667118107909093851e+03,-1.209138868970679368e+03,-6.905318309929905354e+02,-1.248358514682125247e+02,4.212513737992962319e+02,1.010231436699813457e+03,1.738323901276043443e+03,2.639340717311145454e+03,3.424646876425264963e+03,3.374703202293938830e+03,2.294591711380239758e+03,1.002996364067709351e+03,1.140230552461968614e+02,-5.293821378662155439e+02,-1.034425005898373456e+03,-1.328949208230524619e+03,-1.548401580786636941e+03,-1.826660652198337630e+03,-2.102492671902735310e+03,-2.237434673588157693e+03,-2.133978612757050541e+03,-1.858246891300358129e+03,-1.539399393759191980e+03,-1.197831707842412243e+03,-8.552369535665991407e+02,-5.053498874232707294e+02,-4.729802759716017135e+01,4.965508589450616341e+02,1.084248113477636707e+03,1.751533672539545250e+03,2.231801332782227291e+03,2.217515933639031573e+03,1.947347720159525807e+03,1.794155686746921674e+03,1.733664939061640553e+03,1.520706865498983689e+03,1.069964586802489293e+03,5.848062055705972853e+02,1.632536642251292278e+02,-3.672505324370621338e+02,-9.689856641560741082e+02,-1.393529971799863233e+03,-1.590285945308041619e+03,-1.620922855246642484e+03,-1.532657505648508504e+03,-1.402640731719801352e+03,-1.202518016895717437e+03,-8.915860222727231985e+02,-5.720738026398734064e+02,-2.203355786683534916e+02,2.717387032363336630e+02,8.313537051499351946e+02,1.450515571073608044e+03,2.137767953677091100e+03,2.481866390525595762e+03,2.082344404803943689e+03,1.287086094379432552e+03,6.519769487476939958e+02,8.662281172535580254e+01,-6.172419793637814109e+02,-1.205157687324956669e+03,-1.540340017967226231e+03,-1.810609387367105455e+03,-2.023626694013840279e+03,-2.037144874360057656e+03,-1.843684716525818658e+03,-1.536175346962754702e+03,-1.206337238194926158e+03,-8.374789710561120728e+02,-3.732982214763472939e+02,1.479255110782251563e+02,7.261533229509709599e+02,1.359902064909420687e+03,1.964679845447664320e+03,2.625896812880614107e+03,3.296442336248136598e+03,3.311057904825909191e+03,2.306404344642303386e+03,1.051608815757936100e+03,2.066926792402881574e+02,-5.123974078759932809e+02,-1.171780396545701933e+03,-1.392674823763809400e+03,-1.353844316312824503e+03,-1.472683260209937998e+03,-1.692834909600763467e+03,-1.775690090097251414e+03,-1.630246064653920939e+03,-1.357294285893677170e+03,-1.065347108744522757e+03,-6.675673630642716034e+02,-1.623904483861948052e+02,3.320134305419894076e+02,9.016335482546797948e+02,1.688573457557567508e+03,2.593185568622700885e+03,3.126718457907903485e+03,2.703616223970689589e+03,1.527092733308595143e+03,4.620182611156456005e+02,-2.115812219911187526e+02,-7.996935942041952785e+02,-1.257120255106433660e+03,-1.409476161544899014e+03,-1.517554436986215705e+03,-1.785531440775310784e+03,-1.985053447326797141e+03,-1.956495034871691360e+03,-1.767691292728939970e+03,-1.415703347344330268e+03,-9.565118103803994245e+02,-5.311588978969737127e+02,-8.711118095106155579e+01,4.649164606896574696e+02,1.081012056366777870e+03,1.743816385121203439e+03,2.516833284724586974e+03,3.349797115892788952e+03,3.659099932138451550e+03,2.796100588641177637e+03,1.303730972592665012e+03,2.404343681029466779e+02,-4.318575958277471045e+02,-1.138371273637417971e+03,-1.640046955682569205e+03,-1.818350872365707119e+03,-2.035164951867204536e+03,-2.392013945492477433e+03,-2.642922550896072607e+03,-2.628058162769974842e+03,-2.380875486271450427e+03,-2.040937106767076557e+03,-1.666352199163086425e+03,-1.190474096917975658e+03,-6.211208061334341437e+02,-1.404974906144735769e+01,6.550042998265538472e+02,1.387501021384654223e+03,2.131313235978490411e+03,2.950793384803307617e+03,3.972323993605878968e+03,4.865324160713600577e+03,4.822278646115333686e+03,3.689782487968846908e+03,2.365706491008570538e+03,1.527052454839799793e+03,9.780416755151787811e+02,4.004767818247705691e+02
-6.281250923763915353e+02,-1.267752518157602481e+03,-1.689478345431283742e+03,-1.947869088393498259e+03,-2.207139968083617532e+03,-2.498332142812337224e+03,-2.636954821410628483e+03,-2.486226867867616420e+03,-2.179136149528761962e+03,-1.824039027992121873e+03,-1.377498059333827541e+03,-8.726638414777772823e+02,-3.606208545942072305e+02,2.198047535601275513e+02,8.782387939339578224e+02,1.550628924274117253e+03,2.363062770401827947e+03,3.315660116652011311e+03,3.695767089020750518e+03,2.905109902538273673e+03,1.538187609925960942e+03,4.905758523581679356e+02,-1.631622099849439564e+02,-6.628437180169812564e+02,-9.955996144039406772e+02,-1.216000637276670432e+03,-1.515065578274706922e+03,-1.840137747293795201e+03,-1.959030002435205915e+03,-1.829957317072575961e+03,-1.566524955457634633e+03,-1.219142603693729825e+03,-8.575916160174773495e+02,-5.570784839866274751e+02,-1.575671862632970601e+02,4.356265075146955610e+02,9.858403617952305922e+02,1.545602760042555701e+03,2.423821151466256197e+03,3.175606763118566050e+03,2.925706421761536149e+03,1.767971729485609785e+03,6.423557521736959188e+02,-3.059725933684615029e+01,-5.364014315400651185e+02,-9.710558908193330581e+02,-1.188767451413528306e+03,-1.328589434898680793e+03,-1.577749708490531702e+03,-1.761512923810187203e+03,-1.674724935642968831e+03,-1.420514132693531565e+03,-1.128045860276412213e+03,-7.802721666077227383e+02,-4.125268746932168824e+02,-5.043634089813173205e+01,4.151214190364109413e+02,9.904772347143706384e+02,1.566700295386095831e+03,2.247901123619704322e+03,3.028685404996276247e+03,3.232672301560721735e+03,2.353125414949593505e+03,1.072175338718330295e+03,1.915501423448412766e+02,-4.595317654016206461e+02,-1.073925101380436445e+03,-1.383000090867031304e+03,-1.472184622614661293e+03,-1.673385446742139720e+03,-1.942461859411086152e+03,-2.027500491841733947e+03,-1.837474566186364200e+03,-1.539508820671791227e+03,-1.305704798675734082e+03,-1.012752480072498543e+03,-5.439625151777896690e+02,-9.149734254787915688e+01,2.815927302329267832e+02,8.076628657118469619e+02,1.439583256667479873e+03,2.001136991700637736e+03,2.709705728758218356e+03,3.371472141059680325e+03,3.109445623504745981e+03,1.934161700082684547e+03,8.568162679266590658e+02,1.834033498018825412e+02,-4.608379428887330960e+02,-1.017632718524794313e+03,-1.291321872037891580e+03,-1.474611946684261056e+03,-1.731013983165193167e+03,-1.939493819832262943e+03,-1.980978184815684017e+03,-1.867027424503614611e+03,-1.644775807804661554e+03,-1.362777134050145833e+03,-1.049617144852045385e+03,-6.940722230005073925e+02,-2.985575614677067620e+02,1.031204750568979307e+02,5.244459312324736402e+02,1.008405906265995327e+03,1.545705555109761917e+03,2.170687171798768304e+03,2.847857956715067758e+03,3.111854494226849965e+03,2.498192217619245639e+03,1.379467094134639638e+03,5.159317863976775698e+02,-1.287124693229577588e+01,-5.381149394694434704e+02,-9.758956492788473724e+02,-1.152990938996525529e+03,-1.291734918540978015e+03,-1.541060331152735671e+03,-1.696481236362720892e+03,-1.611281342147370196e+03,-1.401178868717273417e+03,-1.220321003059946179e+03,-1.040576083267999593e+03,-7.516052046353941023e+02,-3.747817786062193477e+02,1.947673595612809549e+01,4.166586236708984643e+02,8.222238061887446747e+02,1.344484072572588502e+03,2.059929228224127655e+03,2.595394065034801770e+03,2.345582436035656883e+03,1.374464989071844002e+03,4.282932242741011919e+02,-1.483510996363669392e+02,-5.860756362117333538e+02,-9.036519457891389493e+02,-1.005448905856316742e+03,-1.143981328351173488e+03,-1.446646068228465765e+03,-1.596824488820386705e+03,-1.475420261948813277e+03,-1.338550174318152358e+03,-1.190224545608095468e+03,-8.593270627070797900e+02,-4.889404210547148182e+02,-2.054857598376819112e+02,1.338931709247245863e+02,5.808642233492353171e+02,1.073939862045879863e+03,1.610900131538150163e+03,2.234044101134611992e+03,2.884584525687557289e+03,3.085914664959703259e+03,2.377867865365374655e+03,1.198295722970768111e+03,3.130532525565888591e+02,-2.296017638186940530e+02,-6.868171268255938458e+02,-1.026570646808237825e+03,-1.251420732378814591e+03,-1.506296638344028452e+03,-1.786972650140390897e+03,-1.966832454298053108e+03,-1.938838854087640811e+03,-1.706606539948043064e+03,-1.417551383979559660e+03,-1.151855601442171292e+03,-8.324183989579200897e+02,-4.543288105033705051e+02,-1.037484909408470912e+02,2.948982257352234342e+02,8.509313204021702859e+02,1.441063666859310842e+03,2.032082099925851935e+03,2.746761793506857884e+03,3.243521573418427579e+03,2.921053924713907691e+03,1.865744013173683015e+03,7.818660312576348588e+02,6.708680946377717191e+01,-4.738187489418567111e+02,-1.001385612589874313e+03,-1.349256088028912018e+03,-1.551721237391589057e+03,-1.847945750228709585e+03,-2.133285190389010495e+03,-2.160019492819840707e+03,-1.984139360712636972e+03,-1.766267046201084895e+03,-1.489341104505233261e+03,-1.124370110674688931e+03,-7.648947527183413513e+02,-4.040278264881479799e+02,6.588602475885124932e+01,6.175083694019812128e+02,1.162212686136591856e+03,1.711765595360336874e+03,2.402777486526929351e+03,3.223768315683675610e+03,3.569706307344134530e+03,2.878820558532393079e+03,1.675189483761554357e+03,7.575031038504672551e+02,9.374984286620576768e+01,-4.965100992652975265e+02,-8.767137787122948112e+02,-1.120893118766846328e+03,-1.411135639953085047e+03,-1.694414038847571874e+03,-1.880767098231247019e+03,-1.934836872626293371e+03,-1.799213469797186690e+03,-1.514975804314101424e+03,-1.207172499510640364e+03,-8.923455951427420132e+02,-5.370075999236589723e+02,-1.539664701499609691e+02,2.950439594559963439e+02,8.109333246097453411e+02,1.346604009517503755e+03,2.050607145354945715e+03,2.808250126456485759e+03,2.847884075688632038e+03,1.896320154187844082e+03,7.765813264439526620e+02,7.369068057331827504e+01,-4.054972988088920260e+02,-7.701653529261130871e+02,-9.541496401373913159e+02,-1.132147862613666575e+03,-1.427031715362275918e+03,-1.656357326102675415e+03,-1.678807539232883755e+03,-1.540654956921928488e+03,-1.294882792471265475e+03,-1.011605233312251016e+03,-7.345591704830682147e+02,-4.010299733279880456e+02,-4.923845566917418637e+01,2.716351870792959744e+02,7.455911419802039291e+02,1.405911377937094358e+03,2.049055799912076509e+03,2.681759310764450674e+03,3.115978422564065568e+03,2.727126051802717939e+03,1.547917395373340014e+03,4.452276615268311843e+02,-1.756340309325929638e+02,-6.005087571078302062e+02,-9.962284333714660534e+02,-1.306478305239998917e+03,-1.540108537610930398e+03,-1.746314204214799247e+03,-1.916561543741877813e+03,-1.936776843461176213e+03,-1.706474182295194169e+03,-1.366220082506231165e+03,-1.101556824873322057e+03,-8.451952960368005279e+02,-5.149345586985294858e+02,-1.699705821976131688e+02,2.340106209297796340e+02,7.831094110077868891e+02,1.348269441756856622e+03,1.849809900214469735e+03,2.503119495541868218e+03,3.171578764416642571e+03,3.089480751046402020e+03,2.065017882573783936e+03,9.315665520474595951e+02,2.126894433570027445e+02,-3.175643699561329640e+02,-7.925930074921462847e+02,-1.145132011501795205e+03,-1.393531802531697394e+03,-1.599568993660361684e+03,-1.826011496365167204e+03,-1.975716697017867546e+03,-1.858108460725576151e+03,-1.570069392987947595e+03,-1.337962301796816064e+03,-1.113640424094375248e+03,-7.696389716145234843e+02,-4.033625568162365198e+02,-9.190777240693188332e+01,3.333882923307218675e+02,9.412597696668706249e+02,1.540616092738330281e+03,2.126929394228408455e+03,2.785151823098813566e+03,3.027960481808179793e+03,2.336045293290711470e+03,1.169744120448979857e+03,2.777246944565987974e+02,-2.751518335697056727e+02,-6.685232133158709757e+02,-9.310099390775587835e+02,-1.145317474037926104e+03,-1.378842759827097325e+03,-1.564371039123566788e+03,-1.618659893391523610e+03,-1.516836723797445984e+03,-1.294744947961377193e+03,-1.021681599792141242e+03,-7.356322274457069170e+02,-4.381530628733275989e+02,-1.184012554945312559e+02,2.679080662587027177e+02,7.664376389068640947e+02,1.359154596720718018e+03,2.022815641118517760e+03,2.615357159991508070e+03,2.633100095177458115e+03,1.791390048204693812e+03,6.959911761395841268e+02,-2.081616486937036825e+00,-4.348844864008617606e+02,-8.178858020560918476e+02,-1.042445553320912722e+03,-1.188084732546038595e+03,-1.438255852963183315e+03,-1.672180312239464911e+03,-1.683712701721600070e+03,-1.468856836890389559e+03,-1.146013674043470019e+03,-8.286712700464357795e+02,-5.616019440350736431e+02,-2.747745063192807038e+02,1.361146378677552775e+02,6.380103823748615923e+02,1.139765472157210752e+03,1.744715658655218931e+03,2.532109688647328767e+03,3.075143598832087719e+03,2.784210781188859983e+03,1.753349179945553260e+03,6.308460205165627031e+02,-1.911610717832336945e+02,-7.262189433852317961e+02,-1.074064292037260202e+03,-1.322840200221581654e+03,-1.556714674204973562e+03,-1.796041422722317975e+03,-1.945640702957248322e+03,-1.905536350677424025e+03,-1.715451353459774282e+03,-1.444868299553486622e+03,-1.111968490783079005e+03,-7.706538119428914797e+02,-4.347803506009999523e+02,-3.207698918908027963e+01,4.652880453728608359e+02,1.028819679646214581e+03,1.668918694166851537e+03,2.467381912089770594e+03,3.257909298974530429e+03,3.366748544643480727e+03,2.472878186460092365e+03,1.283387434245287295e+03,4.380736829770916643e+02,-2.276594262299531692e+02,-8.399035661162912447e+02,-1.212850125571382478e+03,-1.419158241453126266e+03,-1.653710445537815076e+03,-1.854609178785375207e+03,-1.907333772282958762e+03,-1.819989602746251649e+03,-1.627890724127021031e+03,-1.350799520256242431e+03,-1.004441671858680593e+03,-6.454537459587706962e+02,-3.240298540601003765e+02,3.826306774968873015e+01,5.319460674885879143e+02,1.101636170620855182e+03,1.695370253256384331e+03,2.378327156097907391e+03,2.965866999241257872e+03,2.877244726782591442e+03,1.977924620610108605e+03,9.287978096115039079e+02,1.700893926642935412e+02,-4.213764528659925759e+02,-8.605898338401631236e+02,-1.092689266621351180e+03,-1.309785574359400925e+03,-1.602628016954137820e+03,-1.776742949367928759e+03,-1.708130106148517598e+03,-1.492639645343505663e+03,-1.260278833789059036e+03,-1.030477066689163621e+03,-7.322793016874833256e+02,-3.730983258677414369e+02,-1.318181865556317689e+01,4.348453641845718494e+02,1.004816560760039465e+03,1.557685533214019415e+03,2.155498795465310650e+03,2.772262546432192266e+03,2.781039295074947404e+03,1.872875270822585890e+03,7.569799420518518218e+02,1.203349157646061940e+01,-5.541680304051815256e+02,-1.036116308731497611e+03,-1.257972751454701211e+03,-1.394535248930461648e+03,-1.675775470797550497e+03,-1.865893791209758319e+03,-1.759757561102282125e+03,-1.540175859663221445e+03,-1.311057424040332535e+03,-9.837781733931045665e+02,-6.180827721451545358e+02,-3.352402876831972662e+02,-4.112764043776485323e+01,4.314294614698380883e+02,1.028935109843681175e+03,1.581880978810017268e+03,2.159784062663117766e+03,2.834308255077775812e+03,3.092523742296670207e+03,2.428719139132972941e+03,1.306524511329869483e+03,4.238082286069210909e+02,-2.327688765754592168e+02,-8.186629214791923914e+02,-1.215001321580068634e+03,-1.435068449323849563e+03,-1.616288001680017260e+03,-1.768331727307590427e+03,-1.849011971843206993e+03,-1.811144072018684938e+03,-1.596655263198235389e+03,-1.254568623641184558e+03,-8.970725790874168979e+02,-5.450666974086051368e+02,-1.658590619982140879e+02,2.794115612002221951e+02,8.068540960445438941e+02,1.326358644617300797e+03,1.845184776748358900e+03,2.541948944155094978e+03,3.150323153956398528e+03,2.948590443563232839e+03,1.912309489835475460e+03,8.577865377862972309e+02,1.979329368962237368e+02,-3.060128675239140534e+02,-7.408568155771396277e+02,-1.000086869406927917e+03,-1.205854418171817542e+03,-1.508566868828051838e+03,-1.747884420925307040e+03,-1.724683213966020048e+03,-1.559849833357110583e+03,-1.396792265742233667e+03,-1.136583580778003579e+03,-7.880759298560199113e+02,-4.882009627175399373e+02,-1.849035430086403267e+02,1.803166994387714794e+02,5.849542766741335527e+02,1.155848806119329538e+03,1.931816460185719734e+03,2.504813559885569703e+03,2.322082112570191384e+03,1.369701061592847964e+03,2.798174662038393876e+02,-4.294049597969621459e+02,-8.267931325272951426e+02,-1.125314551541571063e+03,-1.367856553817272470e+03,-1.596048510758032307e+03,-1.841732256916355482e+03,-2.022712062269772787e+03,-2.035443743659233860e+03,-1.859504272881393945e+03,-1.564958680654613090e+03,-1.243295210719573333e+03,-9.232187836193500061e+02,-5.844807935046630973e+02,-1.854808164375675119e+02,3.266599816183999678e+02,9.158916520348831227e+02,1.520637670347268795e+03,2.269381660664502306e+03,3.159819820068568333e+03,3.588844650120580354e+03,3.036189644317054899e+03,1.994305908920256343e+03,1.271355106266165649e+03,9.128074968176105131e+02,6.424439250231815777e+02,5.066611294145069451e+02,4.870983362087004025e+02,3.995903348604393273e+02
-2.208134505483736802e+02,-1.723753548301706360e+02,-8.033193676929448657e+01,1.481523697513508182e+02,4.706641475597891144e+02,7.864401080168843237e+02,1.103275268187778011e+03,1.455987179911091289e+03,1.951658312571521492e+03,2.561488887913286362e+03,2.731963041316291765e+03,2.082315904487693388e+03,1.112799957351105149e+03,3.667977776096307139e+02,-1.927714249890474321e+02,-6.223629219098842213e+02,-8.472961303271232509e+02,-9.919515803853208809e+02,-1.207198088766891942e+03,-1.431583728835625834e+03,-1.537336634410712122e+03,-1.472515790035702594e+03,-1.262385972090778068e+03,-9.732129152519174795e+02,-6.609006530015467433e+02,-3.509731642839642518e+02,-1.657486559985767371e+01,3.885294585262686837e+02,8.669242272572191723e+02,1.423334568180697033e+03,1.913981722752535006e+03,1.905201288539218012e+03,1.235384954809289866e+03,3.936868730841011370e+02,-1.841469835975098590e+02,-5.482317006580367433e+02,-7.640223903984192475e+02,-8.510221364530731307e+02,-9.998507306953295029e+02,-1.240267417939085590e+03,-1.363118276044225468e+03,-1.281742745912173177e+03,-1.077905629690938213e+03,-8.345339995434895854e+02,-5.375891644295224978e+02,-1.661739551743905565e+02,1.948882559206954284e+02,5.507466426542565614e+02,1.016053036049414231e+03,1.581115357726313960e+03,2.186877290021101089e+03,2.628084800548835119e+03,2.432790878885739403e+03,1.567612182249394664e+03,6.622118274177398689e+02,4.920774884730843723e+01,-4.335204936065694028e+02,-7.930137144450889082e+02,-9.973473289179497669e+02,-1.235522895511246816e+03,-1.550653232052087333e+03,-1.744277533691480357e+03,-1.709344036644086827e+03,-1.536220534276184480e+03,-1.326045594373020776e+03,-1.068610192924865260e+03,-7.462880980895046150e+02,-4.039328993436903374e+02,-6.571993557179547452e+01,3.181370069483294856e+02,8.044044250475022864e+02,1.375690267267986655e+03,1.998184482039268914e+03,2.549079902669503554e+03,2.638344271432399637e+03,2.015312760042337459e+03,1.052083921015659371e+03,2.650902747742011343e+02,-2.786738727856084097e+02,-7.092587529363435124e+02,-1.021235629496002161e+03,-1.200524843638366065e+03,-1.365418285644793514e+03,-1.615494339502201001e+03,-1.801093771724607450e+03,-1.726647467889590644e+03,-1.481482648890776545e+03,-1.205476566498654165e+03,-8.862619230424180614e+02,-5.616690759585806063e+02,-2.603466552930631224e+02,1.342314127319818908e+02,6.700950776521915486e+02,1.223418882630784537e+03,1.753569015323224676e+03,2.376506461835338087e+03,2.896972522251653572e+03,2.756601910817104454e+03,1.923480502922067672e+03,1.047538883429527232e+03,4.647086019344371266e+02,1.813749028969573374e+01,-3.281719119201586636e+02,-5.457597057984545472e+02,-7.431714028407347996e+02,-9.413692063252226490e+02,-1.074561939517743667e+03,-1.117043470661224774e+03,-1.055309624438303445e+03,-9.213102607787142233e+02,-7.416577589455122279e+02,-5.049645678653507730e+02,-2.660176971871989622e+02,-1.705587203483906933e+01,3.395389538023899263e+02,7.167048415846235230e+02,1.047297459173354810e+03,1.530893422729498752e+03,2.041204263525299893e+03,1.938693567788078781e+03,1.010291173159980303e+03,-1.710394049353313335e+02,-1.073175498819046879e+03,-1.684674730325345763e+03,-2.158011931594252474e+03,-2.557983163406835047e+03,-2.941396166233734220e+03,-3.336426851399855877e+03,-3.522890603015370743e+03,-3.104900422472654100e+03,-2.110119459606364217e+03,-1.034562216935466950e+03,-1.174638327857172726e+02,7.245798477918189064e+02,1.463239287769941257e+03,2.049421580036466366e+03,2.506618746224025472e+03,2.785952180590316402e+03,2.946166845447030937e+03,3.146375061324515173e+03,3.108758794174433206e+03,2.350581641665116422e+03,1.118805345705427953e+03,7.501096229896688783e+01,-6.213420105746656645e+02,-1.018510185587327555e+03,-1.018944964075782877e+03,-7.844119419542375908e+02,-6.729281887933536836e+02,-7.822992949012234476e+02,-9.292017259257518162e+02,-9.303094107733847977e+02,-8.276558977580216379e+02,-7.519353333753515471e+02,-6.223390336147019752e+02,-2.686964934088478003e+02,2.455280303385885929e+02,7.398354425447276981e+02,1.254708087280394693e+03,1.862922193227917887e+03,2.419734825508626272e+03,2.963023186059023828e+03,3.603207412534004561e+03,3.809560148249222038e+03,2.997642586277387636e+03,1.606136200107675904e+03,4.548583460574384958e+02,-3.442326153854975246e+02,-1.063109791408734509e+03,-1.779130702350602405e+03,-2.515188202105872278e+03,-3.310369186381359668e+03,-4.119182878892514054e+03,-4.855750804100936875e+03,-5.357814332842192016e+03,-5.541125756853073653e+03,-5.731733125155604284e+03,-6.017746585560954372e+03,-5.455082708393266330e+03,-3.513337233806748827e+03,-1.462694725129359540e+03,-3.044934252489169921e+02,1.025244442056893149e+03,3.552389164147158681e+03,6.425534810755571925e+03,8.292330583445487719e+03,8.610170382018526652e+03,7.504471427851039152e+03,5.674772494007121168e+03,3.920547059443919807e+03,2.444418224275304055e+03,1.191839231552214414e+03,2.577550142083550782e+02,-4.584336420319477838e+02,-1.173860453096293895e+03,-1.781921510730885302e+03,-2.129213023058663566e+03,-2.299520630810576222e+03,-2.327159199884310965e+03,-2.195854561829902195e+03,-1.993284874531840615e+03,-1.752592339255282923e+03,-1.450270556740687653e+03,-1.082098070544868278e+03,-6.123932113718072969e+02,-5.999462464082665747e+01,5.410334150502822013e+02,1.254920038817085924e+03,1.948203660008003681e+03,2.126402942854086177e+03,1.507731960485686614e+03,5.186936089527591776e+02,-2.118422700094473896e+02,-5.994070080964585259e+02,-8.860309749786147222e+02,-1.077683079862017621e+03,-1.140346245617997738e+03,-1.271085970898725918e+03,-1.518591974574380856e+03,-1.629672340668721063e+03,-1.487350832403340064e+03,-1.239759638382107141e+03,-9.634086845264662315e+02,-6.081870948100136047e+02,-2.413820502000265833e+02,8.632247171241391470e+01,5.493818984482531960e+02,1.149074900818405013e+03,1.661755053078095671e+03,2.225981915055924219e+03,2.893082371691994013e+03,2.957849556152919376e+03,2.049949145622832930e+03,8.854721448637624235e+02,8.197244245083862779e+01,-4.523915050907589830e+02,-8.335684799336615924e+02,-1.050353374963724491e+03,-1.254110482347511834e+03,-1.571990156252569477e+03,-1.878015701576746324e+03,-1.947957063498732623e+03,-1.720292599689850476e+03,-1.388283981365589625e+03,-1.148010881894530939e+03,-9.103614888856910738e+02,-5.374896149711684075e+02,-1.037209233930749974e+02,3.685608593678588250e+02,9.388708555397122382e+02,1.497975405552269876e+03,2.103558887772275284e+03,2.935979628219087317e+03,3.445840712134026944e+03,2.891916516559952470e+03,1.674967862375664708e+03,6.741705264485580074e+02,1.647175723230179756e+01,-5.224562147510252998e+02,-9.369532462385138842e+02,-1.229905054842653044e+03,-1.504315325798395634e+03,-1.776211650406199624e+03,-1.981120704669439647e+03,-2.012724945223361829e+03,-1.808084301471308891e+03,-1.518425218389223119e+03,-1.275897048259534586e+03,-9.540021920521571701e+02,-5.195798264391423800e+02,-1.091308667049900123e+02,3.424676153557798557e+02,9.468518788761573433e+02,1.624469253469986143e+03,2.390753865760251301e+03,3.181477049581300889e+03,3.381815174738019778e+03,2.551502024091139447e+03,1.273817097196702889e+03,3.376941214610520774e+02,-2.239738723980846089e+02,-6.968762784813152393e+02,-1.101240806529627207e+03,-1.370729122361511145e+03,-1.607226341385934575e+03,-1.905219077744674451e+03,-2.090813546357049745e+03,-1.980102219495122881e+03,-1.717463022905752268e+03,-1.445923169039365575e+03,-1.104638266680492052e+03,-7.249512492821081651e+02,-3.314998241960747123e+02,1.771688269394029476e+02,7.421163586659511111e+02,1.281714300732376387e+03,1.978665028934125985e+03,2.864043001951679798e+03,3.354055814761854435e+03,2.799650699684529172e+03,1.500952218247519795e+03,3.997009674971768618e+02,-2.350877753861606720e+02,-7.247206548610504342e+02,-1.039455765942566813e+03,-1.141521022515360528e+03,-1.355355593296038705e+03,-1.679996902795382994e+03,-1.785727915972466690e+03,-1.664957708201537116e+03,-1.476710243481209318e+03,-1.195848865805122387e+03,-8.114213971920602262e+02,-4.255888280109345487e+02,-4.908049954158440187e+01,4.110228168648938549e+02,9.515921788826658485e+02,1.526319500760545225e+03,2.233610886488654614e+03,2.958964827244499247e+03,3.034788019652781713e+03,2.071249801679451139e+03,7.412561266760021681e+02,-1.550918446174370047e+02,-6.716534038917596945e+02,-1.061985095731775800e+03,-1.260657072611198146e+03,-1.387363176594373726e+03,-1.673433396090029191e+03,-1.945754504377890044e+03,-1.955100357797494098e+03,-1.789680925737657617e+03,-1.541944673345177534e+03,-1.185522723209127207e+03,-8.072473273779872898e+02,-4.434399003197424918e+02,-1.930848983349113723e+01,4.610045835460720696e+02,1.009406826455938926e+03,1.650239332763054790e+03,2.358266411748149949e+03,3.108778244187936252e+03,3.501888200356389007e+03,2.933414351292313768e+03,1.675335735715857027e+03,6.030394460684258320e+02,-8.193023454280853457e+01,-6.640744386834790021e+02,-1.145294103009691753e+03,-1.409242760014574742e+03,-1.571554832210506675e+03,-1.831855682961705725e+03,-2.074700905864300239e+03,-2.009849458571987725e+03,-1.735378482762287376e+03,-1.496361663456400720e+03,-1.211757103794281193e+03,-8.293252859354705606e+02,-4.539100470803465441e+02,-1.488511121085321065e+01,5.485033090160975462e+02,1.109137495001361685e+03,1.665581091290606309e+03,2.393726805140939632e+03,3.158072065836324327e+03,3.285231427053442530e+03,2.397616841612780718e+03,1.139166248230656038e+03,2.525206076380441118e+02,-3.152743386489505610e+02,-7.706820200171384840e+02,-1.083778902186679034e+03,-1.360957707131641655e+03,-1.682376739078636774e+03,-1.909546240246621892e+03,-1.981289202459960507e+03,-1.956704592197155989e+03,-1.821397195059247224e+03,-1.541264209927261390e+03,-1.200785787733696907e+03,-8.767724517337640009e+02,-5.171977638078471955e+02,-9.981679203065249339e+01,3.661383093063599290e+02,8.934910709597470486e+02,1.388179879210787703e+03,1.899020647868368997e+03,2.654638920825770583e+03,3.308169478945022547e+03,3.085800605862420980e+03,2.041665027577375895e+03,9.724707453243474902e+02,2.068529953789474689e+02,-3.836248313402458052e+02,-7.837344158458919310e+02,-1.010490691811746274e+03,-1.212764479773065432e+03,-1.456383677840826749e+03,-1.681264034681841622e+03,-1.720391150290654878e+03,-1.535491717487083406e+03,-1.318762831505314125e+03,-1.134170976485344681e+03,-8.886268986188849794e+02,-5.909680328840704533e+02,-2.532802557821908920e+02,1.716778540918817271e+02,6.306768868832982662e+02,1.057490503276827212e+03,1.601144511417950753e+03,2.319299067280814143e+03,2.651920339301528657e+03,2.044463626256129373e+03,9.381653138983598410e+02,7.975676106720015923e+01,-4.837586399300722064e+02,-8.828557142499471411e+02,-1.023632458875988050e+03,-1.068544245032313029e+03,-1.292055502998020074e+03,-1.583921864621360555e+03,-1.671666906225289949e+03,-1.490325689112806685e+03,-1.167453046343884125e+03,-8.518677968908937146e+02,-5.450295485924506238e+02,-1.726005074155418413e+02,2.482890474812833190e+02,7.018388549554274505e+02,1.171864329535093702e+03,1.600797229484973059e+03,2.159097860255207706e+03,2.912424037326882626e+03,3.178346327276165539e+03,2.391739416877724125e+03,1.133500630242811894e+03,1.978132420146148434e+02,-4.082360071283469551e+02,-9.146227332671932118e+02,-1.281893990713790117e+03,-1.523001102566617419e+03,-1.764404225182571963e+03,-1.986215728222490498e+03,-2.119389796801214743e+03,-2.112470301412743993e+03,-1.883935525127305027e+03,-1.522416818045715900e+03,-1.210942312637992927e+03,-9.144921458054502637e+02,-5.318076186995472199e+02,-9.025199620280295676e+01,4.334106550122739350e+02,1.055170313020974845e+03,1.669523083584907454e+03,2.361501009003904528e+03,3.140725879931001145e+03,3.352706301016008638e+03,2.529315814599292025e+03,1.302697648723495604e+03,4.057875550645439375e+02,-2.154065923536516038e+02,-7.303388904522739722e+02,-1.042243791006255833e+03,-1.217238274599792021e+03,-1.444710326405820524e+03,-1.711803016905698769e+03,-1.851192350610878293e+03,-1.731653630500942654e+03,-1.427819276416509183e+03,-1.126516985462853199e+03,-8.418768773470005726e+02,-4.927358787742039112e+02,-7.380854264490687910e+01,4.078856847828231480e+02,9.494457517281198307e+02,1.497350846924618054e+03,2.030930463525298364e+03,2.738509694204850348e+03,3.627365741986794546e+03,3.962407202929578489e+03,3.161385446021843563e+03,1.880845287385657457e+03,9.863177351555602854e+02,3.939272472881507383e+02,-1.726153273530438810e+02,-5.885509035475528208e+02,-9.048040924901796416e+02,-1.337705161686250676e+03,-1.754632147439925575e+03,-1.953554187468058899e+03,-2.030859703936665710e+03,-2.071422518162587949e+03,-2.026863858880648877e+03,-1.945842156234556114e+03,-1.876548573819275816e+03,-1.771714399884229806e+03,-1.650517429622078225e+03,-1.527866278131210720e+03,-1.250074367129936491e+03,-7.338375302931649458e+02
-1.311325491069028431e+02,2.304860301294554574e+02,-3.648212877591618621e+02,-1.304568328572548126e+03,-1.850343977052391438e+03,-2.146314473130495571e+03,-2.320078687548369089e+03,-2.298410682743467532e+03,-2.256201190080540982e+03,-2.337762921955117690e+03,-2.414216308020545966e+03,-2.341300996455867335e+03,-2.103906915821240091e+03,-1.730080024334101381e+03,-1.243156507760549403e+03,-7.349415098469631857e+02,-3.087991175585397059e+02,1.000097856163316692e+02,5.979346563375828509e+02,1.160916150071358061e+03,1.779679269333102184e+03,2.515848026949810901e+03,3.270721013918472636e+03,3.567202052952436134e+03,2.952244356597454043e+03,1.796967803038058264e+03,8.736992651161679078e+02,2.239303919038337085e+02,-4.236873770075327457e+02,-8.533645403900127349e+02,-1.003438260641585998e+03,-1.248607969059989045e+03,-1.622748204677640388e+03,-1.835493340667637085e+03,-1.797295270968357499e+03,-1.560728098577741548e+03,-1.247960464696593363e+03,-9.963071481187974996e+02,-7.492565317628768753e+02,-4.287538743646273360e+02,-1.033826162583535222e+02,2.729941772853927660e+02,8.196003477162277022e+02,1.406918459411328058e+03,1.961293380077386246e+03,2.672171628723393951e+03,3.230997175024388071e+03,2.895983728100250119e+03,1.805361373353712679e+03,8.191484969335150481e+02,1.789012217383849475e+02,-3.893683627398379485e+02,-8.875769306451686589e+02,-1.189986251690808558e+03,-1.397481178744842282e+03,-1.661791973761246936e+03,-1.906022675169105469e+03,-1.961951051978073565e+03,-1.847998922365325143e+03,-1.649767956365150894e+03,-1.373340138272789318e+03,-1.086098953685385595e+03,-8.333286382232977303e+02,-4.850576734527251688e+02,-8.073117485792067782e+00,4.614376156693504640e+02,9.174296809800061965e+02,1.424903403008238229e+03,2.026541982993608372e+03,2.713059291193185345e+03,3.032547205659955580e+03,2.458432667767423936e+03,1.360032347108124213e+03,5.057084778081866148e+02,-2.132059168300071406e+01,-4.630181995701155415e+02,-7.725691442724382796e+02,-9.415787934493955618e+02,-1.163808350003597980e+03,-1.469273780097835470e+03,-1.661153405337038066e+03,-1.624994084492478805e+03,-1.448918046445198570e+03,-1.243599909340831573e+03,-1.031960166757898833e+03,-7.861348288498037391e+02,-4.738149569947739792e+02,-1.037242117901290044e+02,3.131366030201491526e+02,7.716736288495137615e+02,1.250120093276768785e+03,1.820824000066791768e+03,2.446172452749588047e+03,2.646096544274360440e+03,2.019365583838486600e+03,9.110554698701349707e+02,-1.684791688763152706e+01,-5.232891871277664677e+02,-7.683088728353291117e+02,-9.390358534769418384e+02,-1.133653983424167563e+03,-1.378315936338249230e+03,-1.608902212750677791e+03,-1.710663999035568168e+03,-1.595504679989155875e+03,-1.305518469576147254e+03,-1.006725645705413172e+03,-7.613617407257574996e+02,-4.856621676198989803e+02,-1.598891568310975231e+02,2.127127767516710719e+02,6.980589430653460568e+02,1.235597346093981741e+03,1.741804085994442630e+03,2.384269498040990584e+03,3.069899354713296816e+03,3.064835333031549908e+03,2.073938603158378100e+03,9.110796952007997334e+02,1.992265542304920132e+02,-3.242148362428538348e+02,-8.085206428266729972e+02,-1.107815717294120759e+03,-1.338974645386266275e+03,-1.614829484173750416e+03,-1.832688016199804224e+03,-1.920935944172664676e+03,-1.861397890570717209e+03,-1.665689114923181023e+03,-1.406709050402901767e+03,-1.148375275138483858e+03,-8.620877303104737166e+02,-4.672336062560513597e+02,-9.732326338375685282e+00,4.175107887716421828e+02,8.879594751876268219e+02,1.473329193095500159e+03,2.167187951900483313e+03,2.933954579630184526e+03,3.367479611737909181e+03,2.914000841876367758e+03,1.800219174982498089e+03,7.947275445416189541e+02,1.293970857685424676e+02,-3.941752440769981831e+02,-8.066550054178868550e+02,-1.124500910587908038e+03,-1.452329048180662994e+03,-1.784293186350716496e+03,-2.004948609409913388e+03,-2.014005377644738019e+03,-1.876207809631828923e+03,-1.715835509411648673e+03,-1.488460402341593181e+03,-1.181901963800465637e+03,-8.923609461271586270e+02,-5.506737190848036789e+02,-5.234405454006372338e+01,5.302738361698002336e+02,1.095452056257157892e+03,1.640060952861267197e+03,2.294643982638988746e+03,3.032188535951721406e+03,3.281423341981238536e+03,2.559261571743129480e+03,1.334732570745188013e+03,4.089108976083692824e+02,-1.140067601356660134e+02,-5.322753623917162713e+02,-8.718122033491852108e+02,-1.103763606081286980e+03,-1.378750229501020158e+03,-1.689402238788451086e+03,-1.879816108059572343e+03,-1.891058697382413811e+03,-1.701378887378104992e+03,-1.401250438958505583e+03,-1.140119945756467814e+03,-8.482509959326773696e+02,-4.620036021978327199e+02,-9.184141072975552333e+01,3.008120261294478723e+02,8.415764308351568843e+02,1.470946815369789192e+03,2.159117803359191839e+03,2.926402943171648076e+03,3.359441850594928383e+03,2.861906359898945539e+03,1.643022967012675281e+03,5.579993955942079538e+02,-7.521330868344432474e+01,-5.340841260735256810e+02,-9.141822008606314967e+02,-1.196965515550826467e+03,-1.508585474757420570e+03,-1.840356026877544537e+03,-2.062853311210603351e+03,-2.116872480785388689e+03,-1.978949725422564143e+03,-1.739816235453815352e+03,-1.496581815750272199e+03,-1.172531659309589713e+03,-7.787956140021169631e+02,-4.279305281337421434e+02,-3.975771241399570499e+01,4.876282162946421863e+02,1.089917021272615784e+03,1.703947065066629193e+03,2.380576075781785221e+03,3.175230415788897517e+03,3.736597776716980661e+03,3.375108895710312026e+03,2.135862850101452750e+03,9.354875346322132827e+02,1.886888532392564457e+02,-4.377325251027883724e+02,-1.003600230191870651e+03,-1.333882227977929915e+03,-1.596779550170822404e+03,-1.946989908571175420e+03,-2.198807754685386499e+03,-2.238912932279157303e+03,-2.137389904053719420e+03,-1.897860758736507250e+03,-1.586593527123517561e+03,-1.310301888996744310e+03,-9.866759003958949279e+02,-5.691399010046302465e+02,-1.474023258656805524e+02,3.160143504147218891e+02,9.060241523167230753e+02,1.542111406955479879e+03,2.190005375334574637e+03,2.979748625871966851e+03,3.662569612069207778e+03,3.505835751844992046e+03,2.396595213624747885e+03,1.182489194610260938e+03,3.993635020643466760e+02,-1.791173290793694832e+02,-6.855121855487871017e+02,-1.049046371370152883e+03,-1.405782345406496688e+03,-1.808447687255954861e+03,-2.055129028179007491e+03,-2.117022685633844958e+03,-2.121097627219849073e+03,-1.971177306123374819e+03,-1.612222372200694053e+03,-1.300179758944200557e+03,-1.097459536916403067e+03,-7.620651224729590467e+02,-3.068410771074101717e+02,1.279499759976724818e+02,6.345853557764808102e+02,1.218542534071439604e+03,1.787685387910328018e+03,2.464299712034135155e+03,3.161289187400881019e+03,3.242640184097153906e+03,2.368220262441790055e+03,1.152081909685717164e+03,2.588150024636818216e+02,-3.465736795064508442e+02,-7.867968484315875912e+02,-1.012254949900899874e+03,-1.185804181817903100e+03,-1.495820327511250980e+03,-1.842474381498505409e+03,-1.993928423112581640e+03,-1.860286414825076918e+03,-1.561019383079489899e+03,-1.238234064567893029e+03,-9.102821581933990274e+02,-5.537728465010795844e+02,-1.645716959278822173e+02,3.024501807533912938e+02,8.582166335421734402e+02,1.435672163463603738e+03,2.111628575673590149e+03,2.939054354064784548e+03,3.436981006452862857e+03,2.959368523307360647e+03,1.687786477020232724e+03,5.267287632144439158e+02,-1.300689176518974364e+02,-6.408726669431124492e+02,-1.098023816127064265e+03,-1.314104326218641290e+03,-1.509015127716419556e+03,-1.863556145723792270e+03,-2.132500989373339962e+03,-2.165259192285650442e+03,-2.038066868792454443e+03,-1.818521791331623945e+03,-1.525948137067301786e+03,-1.154692300006104006e+03,-7.570370833610018053e+02,-3.856728095975204269e+02,2.148563501273389420e+01,5.546946120978948329e+02,1.205365271227941776e+03,1.855915049652391190e+03,2.556883508080817592e+03,3.457004768754366978e+03,4.046086957986863581e+03,3.529210991288023251e+03,2.192982210595509969e+03,9.852026078828870368e+02,1.600467201366095651e+02,-5.216376592292600662e+02,-1.095976472492439825e+03,-1.479114670877169374e+03,-1.747439021824550309e+03,-2.075979544044190334e+03,-2.387309462939910190e+03,-2.460251037874320900e+03,-2.339230177503541199e+03,-2.130487338476878449e+03,-1.830257396864702287e+03,-1.509434283402950996e+03,-1.171452453725715259e+03,-7.296817326084061506e+02,-2.154658482783060549e+02,3.584905758039666352e+02,1.011420883702246556e+03,1.633505428801164726e+03,2.257954049628289340e+03,3.146268103744358541e+03,4.106948277095252706e+03,4.256313178572507240e+03,3.172962696184023571e+03,1.679452689603346471e+03,6.434284776603841465e+02,-6.678813333613061332e+01,-7.571529771064571150e+02,-1.284756968799104015e+03,-1.611615816737495379e+03,-1.938939003566969859e+03,-2.282945070273362035e+03,-2.484393736069841907e+03,-2.501684545265512043e+03,-2.370031080800410564e+03,-2.055859090048511916e+03,-1.654572594489978428e+03,-1.336934765826768398e+03,-9.843620553947359895e+02,-4.540458452068008910e+02,1.246215997706769940e+02,7.145666705693182621e+02,1.384354105220390466e+03,2.080888862679868907e+03,2.875695486682436240e+03,3.674037421872216783e+03,3.730933865874314506e+03,2.648665926633288564e+03,1.213768911240260195e+03,2.252499466415163738e+02,-3.952428103267003507e+02,-8.553302214946260165e+02,-1.108574657993603068e+03,-1.299580684474451573e+03,-1.644383596347215189e+03,-2.010008098841431092e+03,-2.139396147052003471e+03,-2.011514941582477604e+03,-1.744163280895179014e+03,-1.390587381944773597e+03,-9.586356064784400814e+02,-5.370693235775253243e+02,-1.674969586534404584e+02,3.399001267753517368e+02,1.031619183713015445e+03,1.662205361446666075e+03,2.339055872194929634e+03,3.279664311946746693e+03,3.810328755692197774e+03,3.097179336425891961e+03,1.598737962281481714e+03,3.865384479670273095e+02,-3.165578569042354502e+02,-8.693508814945192853e+02,-1.364633241838979075e+03,-1.757764128856719708e+03,-2.106297833088952302e+03,-2.390558416924102403e+03,-2.495830694239711647e+03,-2.355993699495689270e+03,-2.039333022013238860e+03,-1.691049667904022044e+03,-1.337838282387369873e+03,-9.104092885952520646e+02,-4.292030545343662880e+02,7.041643770947752046e+01,6.876534125283287722e+02,1.442106368511789242e+03,2.161150516486055494e+03,2.923002240810693365e+03,3.863033288948063273e+03,4.325578877411204303e+03,3.568526165602439050e+03,2.076221826153041548e+03,7.906174687192013835e+02,-8.657643063929742766e+01,-7.475431484040835812e+02,-1.288776139011017221e+03,-1.727090481602256887e+03,-2.061718097479067637e+03,-2.350707433039059197e+03,-2.564145716951014947e+03,-2.547915900079092808e+03,-2.317288911186366931e+03,-2.040008998012292068e+03,-1.751437157559817251e+03,-1.341897962334143813e+03,-8.135245841423495676e+02,-3.188878008874247598e+02,1.827755058156093355e+02,8.677455961503258095e+02,1.605262189378183393e+03,2.288718751089062152e+03,3.174609437247663209e+03,3.989051233464034340e+03,3.767861593013209585e+03,2.403102944581925385e+03,9.495485390827773244e+02,5.898105484207030713e+01,-5.274472172927222573e+02,-1.032668153513585821e+03,-1.354883832034723582e+03,-1.556004120080514213e+03,-1.824018743759841072e+03,-2.090600142832057827e+03,-2.135877570327049398e+03,-1.932574405982766848e+03,-1.608688060451645470e+03,-1.211532890800782070e+03,-7.816604643287870431e+02,-3.864051504211369092e+02,9.033864142870959313e+01,7.407537966438304693e+02,1.394343519920138988e+03,2.050302119854974080e+03,2.932734507178035074e+03,3.669629758460638186e+03,3.362240233985476607e+03,1.992439842545775491e+03,6.128163432277510765e+02,-2.071776557522736084e+02,-7.832329379887237337e+02,-1.257066669323424776e+03,-1.464717081574925487e+03,-1.553663154191058766e+03,-1.810025745441706931e+03,-2.134136563226106773e+03,-2.202859452627405517e+03,-1.973693612800317624e+03,-1.659477507005558437e+03,-1.358756297095495029e+03,-1.002931661018686668e+03,-5.525607703573291474e+02,-6.341620144378163104e+01,4.579145352559909838e+02,1.088881480178417860e+03,1.744181167543832089e+03,2.326197784447466802e+03,3.098947739827916394e+03,3.940565796375395166e+03,3.842237200124891842e+03,2.500379416343076628e+03,9.955894780438503631e+02,-9.279193129401278384e+00,-8.209672878437130521e+02,-1.534638694227912083e+03,-1.987043899847168177e+03,-2.297194976049424895e+03,-2.639902113298321638e+03,-2.986708435778994499e+03,-3.168779323688127988e+03,-3.044559373619367307e+03,-2.694213693015527497e+03,-2.325607695824456187e+03,-1.985262190328653560e+03,-1.547245529876814544e+03,-9.727593345923362449e+02,-3.671635115214069174e+02,2.775974714209194190e+02,1.042884230656833552e+03,1.841860493843245877e+03,2.710137161190975348e+03,3.794871270433529389e+03,4.574556314555481549e+03,4.226238082718579790e+03,3.006530369836965747e+03,1.938401462893306643e+03,1.366716126000370878e+03,9.912935558995769725e+02,7.263381104556353876e+02,6.335511639302372942e+02,6.206098062875119012e+02
3.193341155684536261e+02,6.414056623670969657e+02,9.253943534479540176e+02,1.215817493804657488e+03,1.544811245300512837e+03,1.895724704347593615e+03,2.346041252074851400e+03,2.950039275708944842e+03,3.634273175738851478e+03,4.466349733644080516e+03,5.319176089322359985e+03,5.301174511240726133e+03,3.833259161521386432e+03,1.853190032467544370e+03,4.854359295392450804e+02,-3.941511523151039000e+02,-1.217625304918899474e+03,-1.948822714263320904e+03,-2.620586831839530987e+03,-3.341884007013246901e+03,-3.989458033703259844e+03,-4.413580426066236214e+03,-4.595968964273945858e+03,-4.613811689476404354e+03,-4.528237563317416971e+03,-4.307858598789287498e+03,-3.982075958501184232e+03,-3.636737681277259071e+03,-3.203944468970846174e+03,-2.534054173831515982e+03,-1.631440609238260549e+03,-6.144236231149047853e+02,5.137265012919508536e+02,1.774530340249086976e+03,3.052152652025763928e+03,4.407609675781901387e+03,5.874113319444608351e+03,6.672308806284236198e+03,6.021915916448244388e+03,4.585224626979776986e+03,3.571659200077629521e+03,3.119301584277082384e+03,2.637444905275792735e+03,1.963197104319016489e+03,1.453406847237040438e+03,1.171309739389533888e+03,7.506494547653164773e+02,1.476428465226151729e+02,-3.303881036669306468e+02,-6.101771009646729453e+02,-8.394927964732063401e+02,-1.103305992640731802e+03,-1.428109156193527724e+03,-1.837757038270455723e+03,-2.252286099399174873e+03,-2.515983185932466768e+03,-2.633763008492859626e+03,-2.684606755567695473e+03,-2.590173183506058194e+03,-2.295418142022809661e+03,-1.865843547454020381e+03,-1.289464810383079111e+03,-4.497268695149347195e+02,6.410801447582074388e+02,1.388567942755559898e+03,9.199494748367951615e+02,-6.140712382195213195e+02,-2.070004505183002948e+03,-2.826837974526169091e+03,-3.130352355776683908e+03,-3.150744485756745235e+03,-2.727142585228973985e+03,-1.997655086295638966e+03,-1.353652963655129497e+03,-7.804193646226483452e+02,-1.231477880441474326e+02,3.849877593683710870e+02,5.986873479057157965e+02,8.344630551240488785e+02,1.299971756679763757e+03,1.790581690152305782e+03,2.168278296692234562e+03,2.519717051047787663e+03,2.869077698166023310e+03,3.200253499064094285e+03,3.547199478705301317e+03,3.962008277743316285e+03,4.572885654960778993e+03,5.304730036434729300e+03,5.499390143638197515e+03,4.517792166977095803e+03,2.687254066937159223e+03,9.635686581111440319e+02,-1.875560940638481497e+02,-9.967690293778657633e+02,-1.706227528836777765e+03,-2.287657790737435789e+03,-2.762011504047585277e+03,-3.235072250804543728e+03,-3.605883402583208408e+03,-3.686888562719359470e+03,-3.553676811910849210e+03,-3.357867854345028263e+03,-3.042358718024773225e+03,-2.600092318917070315e+03,-2.153185595787468628e+03,-1.672129130284649818e+03,-1.076812525504956056e+03,-4.211101018079302776e+02,2.780096118177768858e+02,1.078102013760603768e+03,1.946379305564020569e+03,2.896567342787802772e+03,3.896858795375009777e+03,4.259516431450624623e+03,3.240109041884416456e+03,1.481179399963595870e+03,2.736302056681616932e+02,-2.577839988466576528e+02,-7.247821849181098059e+02,-1.235202492818548535e+03,-1.653339395748971128e+03,-2.022427266676772661e+03,-2.338239761356279814e+03,-2.557643775740292767e+03,-2.640788474389537441e+03,-2.515187531314606986e+03,-2.259291998135392078e+03,-1.982116766243067104e+03,-1.625871689894705924e+03,-1.217547332986649735e+03,-8.658146313589302281e+02,-4.478924214644797530e+02,2.181157102382215953e+02,1.022122015140098938e+03,1.764390295275574772e+03,2.492927642592318989e+03,3.304440312217697738e+03,4.195870702468379022e+03,5.105113565056799416e+03,5.452241280308026035e+03,4.473148913871094919e+03,2.637542369106698970e+03,1.223058508432588951e+03,4.600329723585400643e+02,-2.807980448963473918e+02,-1.133127523337693674e+03,-1.799114283040074724e+03,-2.206265282581443898e+03,-2.544484585985301237e+03,-2.941183486461702159e+03,-3.220578889343902574e+03,-3.174708365869275895e+03,-2.886332478660514425e+03,-2.525582902523934990e+03,-2.162130704331235847e+03,-1.784598724375785423e+03,-1.326434195061585115e+03,-7.930322441289980588e+02,-2.310381872286731095e+02,4.161730673246403285e+02,1.161939139543397459e+03,1.881023080328738615e+03,2.536543930645181717e+03,3.321097649572565842e+03,4.331849535833252958e+03,4.941811846657868955e+03,4.202152007499642423e+03,2.396785285426559312e+03,9.016280705458611919e+02,1.657864104285370104e+02,-4.754762493694215664e+02,-1.210535224717524216e+03,-1.703425883922430330e+03,-2.032610428613399108e+03,-2.424820817318623995e+03,-2.778272201701172435e+03,-2.967825606045886161e+03,-2.994254022453083508e+03,-2.827945041468601175e+03,-2.467597181454915699e+03,-2.039731984855511882e+03,-1.654312621232840911e+03,-1.241779650288237235e+03,-7.309390503886106671e+02,-2.046355151917871353e+02,3.594223079323011234e+02,1.060165742132147443e+03,1.763759091794516280e+03,2.511846237572952759e+03,3.566136722847455076e+03,4.318413168209506694e+03,3.728419518292849261e+03,2.185342014863569148e+03,9.830620773016735257e+02,4.118499076196962960e+02,-2.546339825079110142e+01,-4.868303025375287234e+02,-8.436441015808336488e+02,-1.106037427234011830e+03,-1.365021395529889560e+03,-1.610144963004205238e+03,-1.742093910741423088e+03,-1.654630163377971485e+03,-1.346659124709827438e+03,-9.785123002749344323e+02,-6.332289646609233387e+02,-2.315048268868004868e+02,1.667515631433654448e+02,4.596682697830112829e+02,7.914114195309307433e+02,1.266836484727060451e+03,1.738884977366731619e+03,2.097670262778707638e+03,2.518366338311433537e+03,3.271632246626561027e+03,3.971554457636054394e+03,3.614829164816249431e+03,2.219974228742347805e+03,1.051819855094228160e+03,6.343463204181229003e+02,3.762382344198676947e+02,-1.345541604055148923e+02,-8.817122673417591159e+02,-1.667229025275640197e+03,-2.178829835253344754e+03,-2.384948322676209955e+03,-2.640819072922653959e+03,-3.117307912823040169e+03,-3.478361027720567563e+03,-3.471830357078465568e+03,-3.386406136788784352e+03,-3.497908762780288271e+03,-3.620162903663449924e+03,-3.364484301165984107e+03,-2.506166430966544795e+03,-1.295366756513912605e+03,-2.582351592922939290e+02,4.491137725845217119e+02,9.989912089068354817e+02,1.608516514437915248e+03,2.519209645204001845e+03,3.324835707665150039e+03,2.967048333244636524e+03,1.369425719022838621e+03,-3.025739459098793418e+02,-1.413352652103767696e+03,-2.229939492420191073e+03,-2.726303086186874680e+03,-2.633404686959972423e+03,-2.240037337918811318e+03,-1.975175877921565188e+03,-1.765176525320551718e+03,-1.369369589792387615e+03,-7.443578746486052751e+02,5.800330967811771643e+01,9.083437993515944981e+02,1.651590108431396175e+03,2.281792981689456155e+03,2.861967895598731502e+03,3.423841118781150271e+03,3.999014725110850122e+03,4.580410790103254840e+03,5.151446541686812452e+03,5.745662121789241610e+03,6.382933309598106462e+03,6.925302511223779220e+03,6.929020005572682749e+03,5.901664787780619918e+03,4.049502015213341110e+03,2.284253560623885733e+03,1.064405699086886671e+03,2.832860836897089030e+01,-1.045641289874338554e+03,-1.952381034034709501e+03,-2.622442832805570106e+03,-3.212671202239766444e+03,-3.835002842762782620e+03,-4.397097050570895590e+03,-4.696064794843213349e+03,-4.751136792437981967e+03,-4.766569739858688081e+03,-4.799254252382695086e+03,-4.783792927219019475e+03,-4.595799746300207516e+03,-4.076096589506238161e+03,-3.273465581408442631e+03,-2.336287553638284862e+03,-1.280197416015329964e+03,-1.458857725794769067e+02,1.019069683635757428e+03,2.041109508411610477e+03,2.327346634474270104e+03,1.625745140549534881e+03,6.897769046327857723e+02,2.508145961602897387e+02,2.202683687660445457e+02,3.347505468194269724e+02,4.777860062327978312e+02,3.561444653455864682e+02,-2.418708327159138207e+02,-1.022743886737368143e+03,-1.571839833543182522e+03,-1.897537780413969813e+03,-2.123276032199059500e+03,-2.150508571072477935e+03,-2.053854548998235259e+03,-1.955864856094229253e+03,-1.600010554783200632e+03,-9.598765213201185134e+02,-4.264954516422951656e+02,4.532106813414941371e+00,6.016148839918294016e+02,1.293947299577135254e+03,2.006182222517447826e+03,2.816473246430593917e+03,3.346508933274382798e+03,2.974681608912477259e+03,2.013587036483391103e+03,1.526975129455795923e+03,1.771845154317716379e+03,2.084750827851346912e+03,2.186534172572473381e+03,2.414267286898618295e+03,2.804446477518048596e+03,2.862452306941799179e+03,2.376920112484023775e+03,1.744389922691236279e+03,1.293052913293445044e+03,9.562227612639146628e+02,6.338031551363508243e+02,3.432878497789467929e+02,1.051868855298878316e+02,-4.468290584541296084e+01,-7.541716067829588610e+01,-2.569112901622634126e+01,1.005797833975902336e+02,3.594990953118352195e+02,8.319754747292662387e+02,1.536043789142526748e+03,1.971783687425345306e+03,1.322539071003615391e+03,-3.014814625195219833e+02,-1.810458200414325120e+03,-2.660836807900536769e+03,-3.253601126908114111e+03,-3.836229443515501316e+03,-4.206060675467440888e+03,-4.362400202643551893e+03,-4.550093133902247246e+03,-4.778874999168374416e+03,-4.776521098600244841e+03,-4.343704050146308873e+03,-3.582212215772297895e+03,-2.751532957891732167e+03,-1.946416838358344194e+03,-1.088615286403225355e+03,-1.712373844709056812e+02,7.690322505498888859e+02,1.793794761386854361e+03,2.893964361888823987e+03,3.936708072347363668e+03,4.992124656546138795e+03,6.033517668937366579e+03,6.303572687096127993e+03,5.203612514734146316e+03,3.437545138458787733e+03,2.042279541331689643e+03,1.146207129771633390e+03,4.007188257032216825e+02,-3.519475287617292452e+02,-1.076558402424569522e+03,-1.683684342175566826e+03,-2.137156402260047344e+03,-2.417246303676144635e+03,-2.471746904538347280e+03,-2.322907164276071853e+03,-2.032007943524449956e+03,-1.639924140295173856e+03,-1.232672938415466888e+03,-8.518741096894412976e+02,-4.326096334821655773e+02,9.011505021394503956e+01,7.035244852467677674e+02,1.338576226056786254e+03,2.075068643297964627e+03,2.967253169116479512e+03,3.420924537688320015e+03,2.718858103690048210e+03,1.292991970192909776e+03,1.959120909434659552e+02,-3.820687226422295453e+02,-8.613679629902776469e+02,-1.293013459862713717e+03,-1.550967570990009108e+03,-1.733882823388537872e+03,-1.937279194720064652e+03,-2.105452222729017649e+03,-2.140283080262614931e+03,-1.979224056426599418e+03,-1.669174782730859988e+03,-1.343048738502481910e+03,-1.051461692365657200e+03,-7.291057555311303986e+02,-3.322099123795272817e+02,1.149611976844640822e+02,6.011770258316676063e+02,1.145611562427975741e+03,1.726846830276341734e+03,2.374046335323852418e+03,3.184559875530418140e+03,3.839043159778997506e+03,3.587655217317654206e+03,2.358946197988553649e+03,1.097575032327490135e+03,4.328461490914480692e+02,1.181822540427003787e+01,-5.266328679595675339e+02,-1.007632079359113050e+03,-1.311851269796475663e+03,-1.611776535133973766e+03,-1.961010278516748258e+03,-2.193413102528004856e+03,-2.199382588286625833e+03,-2.063686552812053378e+03,-1.904219815671048536e+03,-1.671467999284140660e+03,-1.345932935328780331e+03,-1.077345672803615116e+03,-8.012949247341543924e+02,-3.086823085708898020e+02,3.061843115080889675e+02,9.057063359147891788e+02,1.523721469674884929e+03,2.180787573051092295e+03,2.903338587635711519e+03,3.330015523494643730e+03,2.761855943516910884e+03,1.470267251971811447e+03,5.217516884233189103e+02,8.083135372500396443e+01,-3.602882244055800811e+02,-7.870252505807392254e+02,-1.029095073223148802e+03,-1.254903777047329640e+03,-1.537574518005870232e+03,-1.728461169076912029e+03,-1.761064244207516822e+03,-1.675149062041923116e+03,-1.459431238233475597e+03,-1.080797651367981416e+03,-6.563393887419468911e+02,-3.262395258332779804e+02,-1.869538191304624775e+01,3.733148514864138861e+02,8.424145102400609630e+02,1.351247231142881446e+03,1.921037438152059622e+03,2.665577843092204603e+03,3.353105953595095798e+03,3.274803637175310087e+03,2.267922106828550113e+03,1.097709545022712746e+03,3.768858534787496524e+02,-1.837250208963143905e+01,-3.834323679275182712e+02,-7.422201770203013211e+02,-1.050797942419435913e+03,-1.384721577250181781e+03,-1.755084605548243644e+03,-2.041607367727987366e+03,-2.165582780423438635e+03,-2.118165098041941746e+03,-1.911789939367435863e+03,-1.618184566459382722e+03,-1.296307223137554729e+03,-8.921350754786546986e+02,-3.606355867185073407e+02,2.764878796005738195e+02,9.834388091134378556e+02,1.668408374380083842e+03,2.379093758207211067e+03,3.194590878355158111e+03,3.522623865112234398e+03,2.638757736407189441e+03,1.072321235628651721e+03,-5.089342686329382559e+01,-6.177864302509243544e+02,-1.147029160239133944e+03,-1.678945144125465958e+03,-2.015959633435286150e+03,-2.234886923903876323e+03,-2.431339781980935186e+03,-2.508566162847503165e+03,-2.374920921709684990e+03,-2.074925403681633270e+03,-1.706978427277618039e+03,-1.280108140217519804e+03,-7.212906393076234508e+02,-3.339494995426997548e+01
