0
2069138
2070006
2071338
2073227
2074378
2074880
2074983
2075296
2074337
2074460
2075201
2075697
2075842
2075776
2075746
2075977
2076220
2076414
2076675
2077024
2076627
2075456
2073866
2074538
2072809
2070333
2069212
2068683
2068213
2067555
2067816
2068422
2069132
2069546
2069350
2070595
2071840
2072524
2072413
2072849
2073447
2074340
2075764
2076358
2077032
2077479
2077582
2077443
2077146
2076377
2075792
2075793
2076039
2075784
2075693
2074945
2074512
2074400
2074181
2074050
2074391
2074825
2075804
2076584
2077542
2077883
2078117
2078515
2078810
2078486
2078765
2078586
2077977
2077792
2077416
2077049
2076848
2076713
2076744
2076770
2076825
2076915
2077361
2077820
2078474
2079046
2079516
2080017
2080828
2080827
2079574
2078492
2076650
2074994
2073734
2073893
2074079
2073122
2072312
2071852
2071496
2071037
2070704
2070417
2069984
2069693
2069374
2069154
2069029
2068191
2067137
2066276
2065688
2065139
2064554
2064127
2063799
2063534
2063254
2063184
2063064
2063009
2063029
2063176
2063515
2064438
2065646
2067110
2068380
2069382
2070389
2071440
2072066
2072035
2072185
2073409
2073646
2073335
2072656
2071807
2070382
2069646
2069161
2069190
2069149
2069601
2070623
2072128
2075547
2077305
2080855
2084564
2085738
2085760
2084382
2084412
2085115
2086599
2086877
2086029
2086053
2086772
2086743
2086198
2085298
2084587
2083859
2083147
2082446
2081332
2080344
2080035
2080622
2081761
2081038
2080881
2080507
2079067
2078404
2079551
2080803
2081598
2081995
2082946
2083895
2082999
2081842
2081278
2080917
2081415
2082850
2083708
2084980
2086610
2088308
2089834
2092094
2094360
2096044
2097745
2099619
2100941
2102465
2103795
2104596
2105426
2105979
2106493
2106795
2107090
2107434
2107493
2107444
2107332
2107108
2106684
2106268
2105863
2105895
2105770
2105732
2105478
2104733
2103601
2102951
2102664
2102660
2102908
2103473
2103819
2104143
2106403
2107668
2107829
2107507
2105335
2102596
2100519
2099494
2098097
2096560
2094850
2092315
2089964
2087806
2085811
2084291
2083125
2082763
2082601
2081578
2079981
2078463
2077318
2076400
2075527
2074359
2073669
2073121
2072717
2072377
2071284
2069379
2067708
2066299
2065244
2064007
2062757
2061330
2060116
2059201
2058531
2057958
2057191
2056877
2056821
2056942
2056811
2056334
2055896
2054963
2053358
2052095
2051014
2049976
2049121
2048869
2048697
2048474
2048221
2047818
2046901
2045738
2044922
2044903
2045075
2045176
2045293
2045302
2044912
2043341
2041801
2040196
2039253
2038465
2037922
2037611
2037474
2037384
2037395
2037523
2037691
2037913
2038203
2038409
2038704
2039007
2039335
2039475
2038695
2037822
2037203
2036789
2036552
2036385
2036422
2036562
2036635
2036674
2036697
2036861
2036899
2036994
2037058
2037140
2037232
2037217
2036170
2035124
2034378
2033823
2033359
2033092
2033000
2032938
2032707
2032435
2032288
2032375
2032562
2032880
2033358
2033911
2034360
2034401
2033843
2033308
2033049
2032939
2032938
2033063
2033388
2033652
2033933
2034225
2034525
2034876
2035248
2035624
2036070
2036488
2036890
2037022
2036529
2036201
2035950
2035745
2035641
2035612
2035644
2035707
2035767
2035813
2035891
2036043
2036277
2036467
2036645
2036820
2037067
2037349
2037525
2037127
2036527
2036032
2035768
2035565
2035368
2035338
2035355
2035399
2035483
2035403
2035373
2035417
2035530
2035700
2035839
2036009
2036201
2036409
2036658
2036902
2036580
2036062
2035699
2035502
2035369
2035284
2035274
2035354
2035461
2035553
2035769
2035938
2036185
2036451
2036697
2036933
2037167
2037395
2037627
2037877
2037766
2037346
2037050
2036923
2036800
2036763
2036850
2036965
2037087
2037158
2037207
2037306
2037386
2037478
2037607
2037680
2037805
2037896
2038033
2038148
2037806
2037257
2036780
2036418
2035968
2035639
2035433
2035374
2035372
2035465
2035580
2035763
2035901
2036088
2036368
2036561
2036778
2037009
2037409
2037822
2038205
2038221
2038198
2038355
2038646
2038949
2039327
2039734
2040083
2040389
2040550
2040576
2040412
2040248
2040193
2040226
2040256
2040301
2040395
2040535
2040598
2040736
2040764
2040781
2040084
2039459
2038910
2038529
2038184
2037905
2037685
2037607
2037494
2037385
2037360
2037353
2037411
2037521
2037634
2037773
2037892
2037995
2038144
2038289
2038469
2038677
2038829
2038895
2038517
2038025
2037671
2037355
2037091
2036858
2036744
2036611
2036483
2036357
2036270
2036184
2036192
2036172
2036166
2036183
2036224
2036248
2036309
2036376
2036461
2036586
2036631
2036311
2035842
2035539
2035311
2035670
2039878
2046950
2052574
2057747
2061500
2063660
2064553
2064771
2065252
2066527
2066905
2066304
2066496
2067012
2067591
2068173
2068701
2069094
2069490
2069638
2069794
2069809
2069708
2069218
2069471
2070076
2070333
2070739
2071151
2071658
2072078
2072225
2073281
2073448
2072827
2073080
2074588
2076306
2077583
2078888
2080918
2083029
2084973
2087273
2089854
2092421
2094788
2095862
2097560
2098656
2097983
2097338
2095892
2094720
2093654
2093046
2092580
2091596
2090965
2090853
2091208
2091247
2091768
2091424
2090341
2090134
2090105
2089704
2088926
2088059
2087168
2086564
2086143
2085849
2085706
2085605
2085462
2085291
2085094
2084903
2084806
2084698
2084622
2084531
2084433
2083930
2083272
2082646
2081991
2081333
2080522
2080021
2079628
2079213
2078754
2078372
2078079
2077829
2077608
2077419
2077252
2077117
2076961
2076842
2076724
2076559
2075818
2074800
2073731
2073012
2072300
2071638
2071141
2070727
2070363
2069964
2069633
2069389
2069129
2068985
2068837
2068691
2068555
2068460
2068367
2068181
2067423
2066619
2066084
2065725
2065198
2064723
2064480
2064208
2063992
2063678
2063517
2063404
2063348
2063276
2063254
2063251
2063240
2063232
2063272
2063316
2063036
2062418
2061825
2061333
2061020
2060657
2060452
2060317
2060241
2060130
2060053
2060018
2060003
2060029
2060091
2060134
2060245
2060262
2060347
2060443
2060541
2060640
2060738
2060719
2060294
2059948
2059655
2059439
2059281
2059117
2059093
2059024
2058980
2058953
2058951
2058979
2058985
2059067
2059114
2059186
2059263
2059328
2059423
2059484
2059594
2059474
2059158
2058868
2058642
2058719
2060504
2065145
2069714
2075258
2077872
2080454
2080293
2079265
2079945
2079943
2079206
2079984
2081929
2083097
2081979
2081013
2080651
2080815
2080894
2081689
2081979
2082224
2083125
2083405
2084332
2085668
2086963
2087488
2087997
2087799
2087966
2087831
2089120
2089793
2090678
2091086
2092422
2093109
2093278
2093777
2094018
2094752
2095836
2096920
2096616
2096292
2096285
2096373
2096495
2096480
2096622
2097953
2099726
2101754
2103631
2106241
2108320
2109986
2110838
2112881
2114668
2115109
2115195
2114460
2114111
2113840
2113973
2113847
2113843
2113478
2112770
2111279
2108543
2104557
2101457
2100159
2099143
2098377
2097708
2097082
2096477
2095925
2095479
2095104
2094862
2094640
2094391
2094193
2094027
2093848
2093649
2093428
2093262
2093129
2093005
2092464
2091178
2090117
2089171
2088284
2087396
2086613
2085980
2085407
2084797
2084199
2083637
2083286
2082936
2082526
2082186
2081984
2081712
2081507
2081169
2080980
2080833
2080693
2080528
2080283
2079337
2078139
2077068
2076216
2075358
2074226
2073580
2073115
2072640
2072187
2071766
2071414
2071098
2070887
2070697
2070528
2070369
2070269
2070199
2070112
2070010
2069972
2069966
2069957
2070018
2069602
2068746
2067893
2067244
2066685
2066251
2066007
2065775
2065564
2065361
2065138
2064977
2064879
2064828
2064793
2064798
2064845
2064867
2064911
2064970
2065045
2065139
2065233
2065377
2065475
2065014
2064442
2063990
2063686
2063394
2063145
2063041
2062990
2062956
2062917
2062903
2062931
2063019
2063083
2063211
2063341
2063465
2063633
2063783
2063952
2064117
2064313
2064469
2064663
2064826
2064511
2064129
2063844
2063673
2063528
2063366
2063332
2063339
2063356
2063347
2063374
2063437
2063536
2063642
2063739
2063837
2063952
2064073
2064205
2064358
2064469
2064655
2064819
2064961
2065102
2065120
2064807
2064479
2064253
2064143
2063987
2063875
2063808
2063802
2063777
2063760
2063739
2063770
2063794
2063835
2063884
2063926
2064039
2064101
2064208
2064320
2064401
2064484
2064593
2064715
2064854
2064959
2064903
2064573
2064274
2064126
2064011
2063873
2063784
2063758
2063735
2063695
2063665
2063692
2063684
2063733
2063760
2063819
2063876
2063909
2063978
2064048
2064099
2064201
2064266
2064343
2064450
2064511
2064292
2063967
2063673
2063473
2063316
2063149
2063027
2062985
2062928
2062886
2062829
2062797
2062817
2062812
2062822
2062895
2062897
2062939
2063001
2063040
2063112
2063196
2063285
2063363
2063415
2063497
2063537
2063230
2062886
2062572
2062371
2062181
2061965
2061793
2061805
2063381
2066322
2069076
2072248
2075923
2078735
2079478
2079706
2080501
2080569
2081349
2081181
2081282
2081374
2081787
2082349
2082456
2082912
2083207
2083309
2083105
2082668
2082214
2081895
2081688
2081576
2081455
2081258
2081087
2080885
2080740
2080615
2080527
2080436
2080309
2080258
2080189
2080163
2080089
2079987
2079958
2079944
2079907
2079962
2080098
2080265
2080154
2079883
2079404
2079060
2079189
2079733
2080853
2082208
2083435
2083982
2084850
2086484
2087465
2087842
2086098
2084652
2082699
2081599
2082114
2081715
2081329
2080573
2079983
2079631
2079401
2079157
2078238
2077503
2076898
2076362
2075851
2075327
2074561
2074190
2073798
2073423
2073087
2072788
2072576
2072332
2072175
2072015
2071861
2071739
2071607
2071473
2071427
2071358
2071284
2071179
2070393
2069476
2068721
2068092
2067468
2066883
2066400
2066187
2066057
2065722
2065444
2065190
2065027
2064846
2064743
2064643
2064586
2064549
2064478
2064466
2064474
2064467
2064514
2064514
2064484
2063959
2063271
2062629
2062200
2061714
2061319
2061033
2060824
2060644
2060465
2060313
2060228
2060119
2060080
2060054
2060062
2060092
2060074
2060123
2060183
2060226
2060287
2060373
2060443
2060359
2059920
2059447
2059173
2058884
2058644
2058385
2058231
2058198
2058093
2058044
2057990
2057964
2057970
2058040
2058076
2058120
2058172
2058240
2058293
2058401
2058498
2058570
2058669
2058777
2058897
2058909
2058638
2058361
2058179
2058056
2057922
2057719
2057633
2057635
2057645
2057651
2057666
2057603
2057730
2057781
2057891
2057987
2058053
2058112
2058186
2058261
2058358
2058436
2058528
2058603
2058702
2058806
2058926
2058891
2058658
2058467
2058362
2058296
2058212
2058188
2058183
2058197
2058216
2058221
2058231
2058282
2058325
2058363
2058403
2058452
2058523
2058583
2058641
2058717
2058764
2058823
2058879
2058969
2059003
2059060
2058885
2058627
2058427
2058255
2058142
2057998
2057867
2057775
2057726
2057657
2057414
2057498
2057494
2057336
2057343
2057402
2057512
2057641
2057368
2057352
2057385
2057416
2057429
2057431
2057430
2057613
2057601
2057314
2056990
2056668
2056397
2056129
2055852
2055566
2055374
2055195
2055083
2054992
2054882
2054786
2054708
2054656
2054581
2054597
2054544
2054511
2054483
2054469
2054494
2054468
2054466
2054470
2054480
2054474
2054251
2053788
2053334
2053009
2052717
2052393
2052184
2052344
2052933
2053337
2053727
2054192
2054408
2054360
2054140
2053855
2053650
2053534
2053432
2053331
2053189
2053129
2053021
2052946
2052894
2052843
2052774
2052365
2051841
2051313
2050893
2050550
2050183
2049852
2049638
2049433
2049184
2049048
2048982
2048900
2048848
2048780
2048726
2048668
2048639
2048603
2048586
2048566
2048589
2048612
2048667
2048716
2048427
2047906
2047434
2047072
2046779
2046462
2046152
2046023
2045891
2045775
2045642
2045547
2045473
2045476
2045453
2045485
2045514
2045571
2045643
2045737
2045790
2045926
2046025
2046149
2046278
2046452
2046584
2046366
2046026
2045755
2045580
2045412
2045231
2045100
2045067
2045063
2045011
2044974
2044989
2045017
2045066
2045144
2045224
2045319
2045447
2045533
2045683
2045810
2045936
2046092
2046233
2046429
2046574
2046716
2046887
2046792
2046553
2046333
2046236
2046163
2046038
2045962
2045911
2045943
2045969
2045963
2046002
2046048
2046121
2046222
2046287
2046396
2046524
2046623
2046783
2046888
2047036
2047213
2047367
2047499
2047640
2047788
2047935
2048088
2047916
2047705
2047530
2047415
2047313
2047178
2047110
2047055
2047063
2046996
2046974
2046942
2046969
2046992
2047027
2047116
2047180
2047240
2047329
2047429
2047521
2047646
2047777
2047913
2048061
2048212
2048239
2048065
2047862
2047741
2047673
2047575
2047473
2047437
2047452
2047420
2047407
2047434
2047451
2047485
2047544
2047604
2047705
2047778
2047900
2047982
2048077
2048231
2048354
2048517
2048630
2048787
2048863
2048874
2048626
2048368
2048177
2048020
2047869
2047697
2047603
2047530
2047478
2047416
2047365
2047343
2047365
2047386
2047433
2047492
2047545
2047641
2047709
2047803
2047900
2048004
2048155
2048254
2048436
2048576
2048461
2048100
2047802
2047603
2047444
2047256
2047093
2046979
2046928
2046850
2046830
2046780
2046764
2046791
2046850
2046897
2046964
2047053
2047108
2047199
2047314
2047397
2047491
2047610
2047730
2047754
2047406
2047016
2046694
2046491
2046287
2046062
2045931
2045829
2045744
2045643
2045581
2045527
2045511
2045543
2045575
2045609
2045663
2045720
2045785
2045858
2045957
2046054
2046163
2046228
2046396
2046503
2046513
2046144
2045716
2045370
2045064
2044765
2044466
2044325
2044222
2044138
2044037
2043985
2043957
2043953
2043962
2043998
2044060
2044114
2044176
2044290
2044366
2044448
2044593
2044739
2044905
2045047
2045179
2045207
2044895
2044444
2044166
2043953
2043715
2043493
2043357
2043278
2043213
2043135
2043043
2043026
2043044
2043065
2043136
2043205
2043249
2043326
2043425
2043535
2043704
2043839
2044002
2044143
2044310
2044327
2044056
2043757
2043586
2043443
2043276
2043113
2043079
2043078
2043068
2043038
2043070
2043132
2043198
2043320
2043408
2043514
2043662
2043788
2043948
2044114
2044277
2044460
2044672
2044881
2045045
2045264
2045477
2045513
2045292
2045086
2044984
2044872
2044753
2044610
2044543
2044600
2044641
2044666
2044708
2044798
2044930
2045040
2045136
2045259
2045409
2045519
2045690
2045840
2045991
2046168
2046347
2046507
2046702
2046870
2047090
2047205
2047053
2046867
2046737
2046640
2046541
2046430
2046347
2046376
2046363
2046402
2046414
2046444
2046515
2046560
2046642
2046726
2046833
2046921
2047013
2047129
2047250
2047384
2047506
2047630
2047757
2047899
2048040
2048179
2048031
2047767
2047645
2047506
2047431
2047295
2047222
2047204
2047191
2047194
2047162
2047193
2047229
2047267
2047348
2047402
2047500
2047594
2047677
2047782
2047914
2048024
2048164
2048290
2048429
2048585
2048740
2048772
2048571
2048324
2048125
2048012
2047883
2047751
2047659
2047612
2047575
2047547
2047511
2047554
2047558
2047575
2047646
2047699
2047761
2047804
2047855
2047947
2048021
2048117
2048223
2048356
2048459
2048598
2048713
2048861
2048883
2048657
2048393
2048186
2048063
2047914
2047739
2047662
2047635
2047617
2047535
2047525
2047511
2047547
2047589
2047649
2047731
2047786
2047875
2047943
2048051
2048187
2048264
2048403
2048510
2048625
2048743
2048873
2048921
2048924
2048810
2048519
2048310
2048141
2047948
2047808
2047696
2047629
2047585
2047536
2047500
2047442
2047496
2047530
2047542
2047613
2047654
2047703
2047789
2047868
2047953
2048041
2048147
2048259
2048345
2048465
2048573
2048642
2048386
2048002
2047737
2047520
2047358
2047173
2047015
2046924
2046830
2046733
2046642
2046602
2046565
2046548
2046550
2046566
2046624
2046694
2046723
2046780
2046896
2046995
2047088
2047197
2047307
2047457
2047531
2047279
2046904
2046579
2046378
2046189
2045971
2045821
2045772
2045857
2045964
2046014
2046078
2046127
2046099
2046134
2046188
2046185
2046255
2046333
2046402
2046482
2046571
2046694
2046819
2046930
2047057
2047217
2047361
2047272
2046966
2046639
2046441
2046299
2046127
2046012
2045891
2045885
2045851
2045815
2045809
2045849
2045900
2045962
2046030
2046139
2046238
2046383
2046531
2046727
2046894
2047051
2047217
2047392
2047500
2047639
2047779
2047835
2047614
2047322
2047179
2047042
2046902
2046757
2046661
2046700
2046649
2046656
2046654
2046656
2046673
2046723
2046800
2046892
2046975
2047096
2047185
2047293
2047406
2047555
2047666
2047807
2047950
2048109
2048227
2048062
2047855
2047674
2047613
2047504
2047406
2047366
2047373
2047392
2047544
2047974
2050037
2051886
2052814
2054181
2060214
2065108
2065844
2066573
2067281
2067832
2069739
2070403
2070550
2071147
2071478
2071601
2071437
2070926
2070299
2069819
2069508
2069323
2069254
2069244
2069235
2069259
2069125
2068957
2068830
2068668
2068538
2068489
2068454
2068462
2068412
2068432
2068430
2068442
2068466
2068481
2068507
2068523
2068382
2068000
2067631
2067285
2067079
2066819
2066560
2066399
2066282
2066226
2066116
2066043
2065970
2065863
2065704
2065592
2065526
2065415
2065380
2065295
2065262
2065263
2065295
2065372
2065425
2065266
2064812
2064309
2063861
2063532
2063150
2062796
2062492
2062118
2061833
2061573
2061371
2061180
2061052
2061046
2061028
2061127
2061379
2062019
2063012
2064285
2065904
2067051
2068364
2068878
2068887
2068968
2069437
2070437
2071673
2073109
2073824
2074652
2076386
2077334
2077005
2077089
2076450
2072887
2071972
2071376
2071161
2070463
2069739
2069455
2069336
2069282
2069258
2069229
2069233
2069149
2068689
2067982
2067558
2067216
2066855
2066524
2066289
2066212
2066096
2066022
2065877
2065773
2065663
2065583
2065551
2065514
2065498
2065533
2065530
2065557
2065561
2065597
2065633
2065387
2064973
2064603
2064294
2064032
2063747
2063522
2063364
2063276
2063159
2063074
2063013
2062977
2062964
2062970
2062971
2062977
2063027
2063094
2063106
2063166
2063226
2063285
2063343
2063415
2063297
2062960
2062639
2062430
2062201
2061979
2061734
2061622
2061572
2061496
2061419
2061359
2061321
2061312
2061343
2061316
2061345
2061383
2061422
2061450
2061510
2061541
2061595
2061665
2061712
2061761
2061568
2061262
2061009
2060823
2060620
2060454
2060312
2060234
2060124
2060065
2059965
2059904
2059862
2059827
2059822
2059792
2059795
2059802
2059818
2059849
2059850
2059872
2059890
2059897
2059599
2059279
2059006
2058792
2058577
2058364
2058222
2058085
2057987
2057789
2057661
2057390
2057364
2057295
2057238
2057209
2057214
2057169
2057144
2057133
2057105
2057117
2057107
2057106
2057135
2056860
2056476
2056143
2055886
2055648
2055347
2055120
2054948
2054806
2054650
2054501
2054400
2054327
2054274
2054229
2054214
2054167
2054138
2054163
2054171
2054210
2054226
2054234
2054286
2054289
2054129
2053733
2053357
2052998
2052728
2052455
2052206
2052059
2051889
2051748
2051610
2051480
2051366
2051309
2051229
2051179
2051128
2051084
2051077
2051049
2051052
2051053
2051101
2051113
2050958
2050593
2050153
2049840
2049609
2049332
2049056
2049006
2048924
2048870
2048834
2048718
2048636
2048612
2048582
2048568
2048570
2048553
2048570
2048605
2048652
2048694
2048754
2048823
2048872
2048859
2048531
2048097
2047822
2047594
2047370
2047112
2046976
2046895
2046850
2046758
2046717
2046675
2046664
2046714
2046746
2046806
2046845
2046936
2046985
2047081
2047178
2047285
2047371
2047510
2047641
2047515
2047185
2046865
2046669
2046532
2046354
2046211
2046143
2046110
2046080
2045999
2045970
2045988
2046023
2046022
2046089
2046120
2046196
2046253
2046307
2046406
2046477
2046579
2046674
2046779
2046859
2046644
2046365
2046140
2045966
2045826
2045722
2045626
2045591
2045567
2045565
2045533
2045540
2045578
2045654
2045697
2045799
2045875
2045996
2046091
2046213
2046327
2046465
2046613
2046703
2046479
2046230
2046039
2045916
2045796
2045674
2045610
2045588
2045581
2045552
2045547
2045567
2045599
2045687
2045764
2045821
2045929
2046025
2046138
2046228
2046359
2046477
2046613
2046750
2046880
2046815
2046559
2046325
2046175
2046049
2045950
2045811
2045735
2045733
2045690
2045657
2045654
2045689
2045707
2045764
2045852
2045899
2045980
2046055
2046173
2046285
2046380
2046503
2046635
2046754
2046883
2046766
2046499
2046265
2046072
2045919
2045759
2045612
2045544
2045507
2045442
2045396
2045355
2045363
2045372
2045415
2045450
2045513
2045586
2045649
2045737
2045828
2045894
2045989
2046095
2046221
2046348
2046231
2045871
2045580
2045353
2045191
2044995
2044806
2044646
2044552
2044433
2044332
2044270
2044257
2044230
2044252
2044246
2044270
2044327
2044365
2044446
2044500
2044583
2044703
2044818
2044813
2044438
2044058
2043783
2043592
2043364
2043201
2043069
2042976
2042903
2042844
2042812
2042773
2042760
2042799
2042837
2042911
2042972
2043044
2043130
2043209
2043287
2043383
2043507
2043602
2043755
2043695
2043329
2042886
2042670
2042479
2042270
2042094
2041987
2041933
2041883
2041818
2041764
2041765
2041802
2041826
2041904
2041965
2042037
2042115
2042236
2042312
2042421
2042549
2042681
2042814
2042958
2043025
2042777
2042412
2042130
2041935
2041755
2041561
2041428
2041384
2041325
2041252
2041254
2041297
2041270
2041316
2041392
2041443
2041527
2041627
2041747
2041850
2041962
2042133
2042276
2042399
2042522
2042604
2042359
2042028
2041774
2041649
2041512
2041355
2041299
2041272
2041245
2041214
2041193
2041244
2041282
2041333
2041399
2041493
2041594
2041685
2041792
2041898
2042036
2042174
2042304
2042459
2042551
2042362
2042089
2041883
2041781
2041657
2041516
2041455
2041443
2041455
2041427
2041450
2041485
2041523
2041604
2041718
2041793
2041896
2042004
2042136
2042261
2042400
2042529
2042690
2042863
2043001
2043031
2042818
2042571
2042415
2042316
2042186
2042042
2042022
2041976
2041988
2041966
2041999
2042034
2042070
2042165
2042236
2042345
2042427
2042549
2042666
2042797
2042911
2043064
2043189
2043350
2043488
2043557
2043338
2043066
2042921
2042811
2042648
2042525
2042454
2042396
2042287
2042218
2042218
2042255
2042297
2042376
2042444
2042531
2042612
2042690
2042818
2042923
2043036
2043157
2043262
2043384
2043507
2043343
2043077
2042830
2042708
2042574
2042415
2042298
2042255
2042237
2042153
2042155
2042175
2042166
2042235
2042267
2042373
2042448
2042534
2042613
2042725
2042834
2042946
2043067
2043230
2043230
2042945
2042600
2042394
2042236
2042070
2041916
2041855
2041831
2041798
2041757
2041728
2041771
2041789
2041854
2041942
2042028
2042102
2042203
2042322
2042421
2042559
2042679
2042813
2042944
2043003
2042742
2042427
2042182
2042036
2041876
2041679
2041575
2041540
2041511
2041490
2041485
2041475
2041502
2041550
2041640
2041719
2041774
2041891
2042020
2042120
2042254
2042439
2042585
2042720
2042864
2042763
2042437
2042125
2041918
2041798
2041596
2041436
2041375
2041335
2041322
2041252
2041242
2041265
2041295
2041361
2041418
2041491
2041576
2041666
2041733
2041831
2041942
2042044
2042190
2042294
2042362
2042083
2041712
2041471
2041310
2041118
2040996
2040863
2040822
2040787
2040550
2040706
2040585
2040560
2040767
2040844
2040884
2040981
2041080
2041157
2041284
2041388
2041514
2041649
2041701
2041433
2041054
2040763
2040470
2040085
2039888
2039757
2039713
2039663
2039646
2039611
2039598
2039626
2039703
2039725
2039823
2039905
2039998
2040095
2040197
2040538
2040802
2040948
2041112
2041201
2040891
2040375
2039920
2039746
2039599
2039398
2039287
2039261
2039237
2039225
2039229
2039232
2039300
2039391
2039497
2039611
2039678
2039931
2040099
2040687
2040956
2041217
2041451
2041713
2041808
2041550
2041228
2040995
2040822
2040510
2040098
2039955
2039889
2039807
2039742
2039640
2039621
2039589
2039620
2039662
2039679
2039748
2039802
2039877
2039982
2040244
2040386
2040443
2040026
2039632
2039351
2039132
2038921
2038724
2038619
2038588
2038565
2038604
2038687
2038790
2038857
2038931
2039016
2039096
2039240
2039411
2039631
2039857
2040093
2040623
2040997
2041225
2041147
2040989
2040864
2040808
2040780
2040751
2040816
2040930
2041044
2041075
2041129
2041217
2041371
2041585
2041966
2042463
2042640
2042749
2042859
2042999
2043051
2043171
2043327
2043559
2043606
2043596
2043705
2044008
2044220
2044424
2044888
2045255
2045553
2045838
2046099
2046267
2046402
2046587
2046734
2046820
2046945
2047130
2047315
2047501
2047693
2047872
2048134
2048411
2048454
2048356
2048375
2048330
2048257
2048144
2048055
2048003
2047943
2047887
2047841
2047860
2047844
2047845
2047892
2047960
2048072
2048164
2048324
2048516
2048713
2048880
2048997
2049093
2049041
2048998
2048984
2049019
2049052
2049039
2049082
2049165
2049171
2049175
2049184
2049237
2049226
2049285
2049370
2049406
2049454
2049530
2049619
2049747
2049898
2050000
2050241
2050408
2050286
2050094
2050056
2050219
2050468
2050819
2051292
2051843
2052405
2052891
2053292
2053564
2053812
2053945
2054054
2054148
2054236
2054356
2054476
2054558
2054646
2054695
2054765
2054794
2054808
2054398
2053946
2053524
2053148
2052863
2052601
2052482
2052488
2052596
2052676
2052762
2052901
2053064
2053253
2053398
2053510
2053600
2053654
2053663
2053650
2053557
2053477
2053419
2053284
2052846
2052302
2051801
2051447
2051097
2050751
2050410
2050199
2049938
2049709
2049508
2049310
2049151
2049061
2049022
2048946
2048864
2048874
2048827
2048753
2048688
2048669
2048643
2048606
2048516
2048064
2047467
2046975
2046635
2046277
2045894
2045575
2045360
2045158
2044953
2044755
2044551
2044400
2044320
2044229
2044153
2044108
2044039
2044013
2043973
2043971
2043988
2044011
2044057
2044096
2044021
2043556
2043064
2042682
2042382
2042083
2041803
2041580
2041424
2041239
2041114
2040938
2040829
2040820
2040967
2041283
2041775
2042311
2042835
2043257
2043516
2043672
2043742
2043795
2043793
2043760
2043332
2042746
2042278
2041903
2041558
2041260
2040982
2040777
2040198
2040006
2039854
2039714
2039639
2039590
2039558
2039587
2039584
2039585
2039600
2039675
2039709
2039803
2039895
2039896
2039502
2039047
2038622
2038363
2038112
2037919
2037747
2037673
2037580
2037550
2037492
2037504
2037526
2037583
2037663
2037753
2037861
2037954
2038101
2038255
2038399
2038518
2038677
2038850
2038799
2038369
2037885
2037552
2037320
2037081
2036842
2036717
2036654
2036594
2036529
2036495
2036480
2036518
2036557
2036630
2036721
2036788
2036877
2036966
2037071
2037174
2037309
2037414
2037534
2037643
2037141
2036651
2036298
2035989
2035748
2035518
2035381
2035322
2035227
2035156
2035108
2035080
2035128
2035187
2035198
2035283
2035345
2035431
2035487
2035607
2035705
2035788
2035911
2036118
2036011
2035499
2034995
2034694
2034487
2034274
2034102
2034008
2033971
2033910
2033869
2033839
2033858
2033912
2034002
2034085
2034195
2034336
2034430
2034586
2034722
2034940
2035122
2035287
2035379
2035011
2034544
2034205
2034000
2033813
2033625
2033488
2033525
2033512
2033516
2033488
2033564
2033634
2033771
2033875
2034005
2034167
2034320
2034497
2034711
2034852
2035076
2035300
2035492
2035725
2035815
2035479
2035092
2034896
2034790
2034657
2034536
2034511
2034548
2034580
2034611
2034677
2034764
2034896
2035074
2035237
2035396
2035566
2035747
2035956
2036198
2036423
2036626
2036843
2037046
2037273
2037295
2037018
2036770
2036610
2036562
2036462
2036399
2036393
2036437
2036457
2036498
2036546
2036626
2036743
2036847
2036970
2037129
2037289
2037452
2037639
2037839
2038029
2038245
2038467
2038649
2038631
2038383
2038220
2038126
2038097
2038039
2038040
2038112
2038177
2038245
2038320
2038419
2038535
2038671
2038848
2039004
2039195
2039360
2039562
2039755
2039955
2040164
2040626
2040956
2041171
2041333
2041132
2040895
2040771
2040582
2040508
2040290
2040204
2040242
2040249
2040489
2040556
2040608
2040800
2040869
2040957
2041081
2041208
2041340
2041498
2041627
2041772
2041969
2042112
2042314
2042468
2042645
2042399
2042128
2041953
2041825
2041709
2041584
2041545
2041523
2041459
2041433
2041390
2041393
2041437
2041456
2041553
2041596
2041671
2041774
2041892
2041991
2042117
2042240
2042367
2042503
2042654
2042394
2042012
2041713
2041521
2041375
2041174
2041029
2040968
2040930
2040850
2040824
2040826
2040840
2040894
2040990
2041069
2041143
2041273
2041365
2041487
2041617
2041794
2041935
2042065
2042235
2042375
2042142
2041746
2041357
2041120
2040954
2040793
2040246
2040181
2040137
2040085
2040028
2040022
2040035
2040071
2040113
2040222
2040557
2040688
2040873
2041004
2041125
2041247
2041366
2041486
2041629
2041798
2041833
2041496
2041078
2040717
2040481
2040182
2039846
2039720
2039662
2039613
2039561
2039513
2039522
2039567
2039612
2039674
2039760
2039840
2039940
2040043
2040180
2040515
2040823
2040973
2041141
2041164
2040815
2040151
2039976
2039878
2039772
2039690
2039680
2039712
2039726
2039753
2039762
2039855
2039932
2040054
2040163
2040527
2040793
2040965
2041113
2041284
2041457
2041650
2041851
2042048
2042166
2042001
2041756
2041611
2041547
2041485
2041410
2041427
2041466
2041507
2041556
2041632
2041700
2041804
2041924
2042046
2042198
2042364
2042507
2042693
2042819
2042997
2043203
2043397
2043572
2043748
2043868
2043680
2043517
2043381
2043348
2043263
2043220
2043188
2043239
2043261
2043269
2043298
2043329
2043416
2043527
2043639
2043711
2043806
2043912
2044060
2044155
2044259
2044407
2044523
2044679
2044846
2044912
2044665
2044384
2044224
2044162
2044050
2043941
2043915
2043873
2043843
2043823
2043821
2043825
2043857
2043906
2043965
2044052
2044142
2044250
2044343
2044455
2044594
2044749
2044869
2045008
2045160
2045056
2044734
2044478
2044363
2044277
2044147
2044051
2044015
2044032
2043955
2043974
2043949
2043983
2044039
2044100
2044172
2044257
2044348
2044456
2044554
2044761
2044888
2045011
2045156
2045287
2045393
2045249
2044929
2044627
2044450
2044314
2044174
2044038
2043977
2043971
2043913
2043839
2043849
2043883
2043889
2043962
2044015
2044106
2044183
2044276
2044365
2044508
2044649
2044809
2044944
2045066
2045230
2045259
2044994
2044657
2044412
2044278
2044116
2043986
2043916
2043843
2043801
2043752
2043731
2043728
2043769
2043831
2043875
2043932
2044004
2044075
2044163
2044234
2044334
2044451
2044540
2044689
2044812
2044903
2044725
2044360
2044131
2043986
2043850
2043709
2043625
2043595
2043546
2043483
2043453
2043444
2043469
2043510
2043551
2043618
2043700
2043765
2043860
2043981
2044075
2044202
2044321
2044438
2044561
2044343
2044006
2043806
2043710
2043595
2043469
2043391
2043380
2043357
2043330
2043319
2043354
2043359
2043449
2043533
2043612
2043709
2043822
2043930
2044097
2044215
2044332
2044462
2044655
2044825
2044921
2044689
2044373
2044185
2044064
2043943
2043767
2043684
2043649
2043628
2043586
2043559
2043536
2043572
2043624
2043664
2043720
2043801
2043876
2043974
2044056
2044175
2044270
2044350
2044446
2044610
2044718
2044479
2044126
2043827
2043623
2043444
2043244
2043028
2042947
2042850
2042779
2042664
2042602
2042544
2042523
2042541
2042541
2042559
2042575
2042620
2042672
2042743
2042807
2042855
2042930
2043027
2043017
2042652
2042264
2041962
2041740
2041564
2041343
2041200
2041110
2041020
2040907
2040840
2040799
2040753
2040768
2040813
2040846
2040908
2040959
2041014
2041085
2041192
2041269
2041394
2041503
2041601
2041515
2041070
2040476
2039928
2039695
2039410
2039167
2039005
2038866
2038787
2038696
2038600
2038547
2038517
2038556
2038576
2038596
2038671
2038720
2038789
2038906
2038971
2039080
2039188
2039314
2039426
2039517
2039184
2038661
2038257
2037990
2037724
2037422
2037233
2037150
2037054
2036961
2036913
2036867
2036896
2036883
2036954
2037011
2037099
2037187
2037264
2037363
2037482
2037608
2037705
2037842
2037954
2038091
2037802
2037306
2036962
2036704
2036529
2036296
2036144
2036035
2035977
2035940
2035851
2035856
2035857
2035936
2035986
2036099
2036179
2036294
2036403
2036523
2036658
2036802
2036926
2037053
2037217
2036902
2036554
2036324
2036199
2036027
2035880
2035853
2035862
2035892
2035894
2035908
2035975
2036068
2036195
2036341
2036457
2036618
2036760
2036915
2037100
2037258
2037439
2037630
2037835
2038036
2037911
2037682
2037491
2037438
2037368
2037292
2037265
2037290
2037328
2037372
2037412
2037490
2037583
2037716
2037854
2037969
2038117
2038298
2038457
2038621
2038850
2039022
2039204
2039386
2039580
2039747
2039619
2039427
2039315
2039252
2039174
2039122
2039106
2039129
2039172
2039191
2039221
2039268
2039330
2039443
2039519
2039614
2039723
2039823
2039963
2040095
2040216
2040553
2040808
2040959
2041071
2041142
2040928
2040548
2040414
2040089
2040006
2039866
2039838
2039770
2039779
2039729
2039698
2039723
2039762
2039812
2039894
2039960
2040035
2040127
2040214
2040693
2040776
2040899
2041006
2040911
2040441
2039979
2039795
2039630
2039491
2039338
2039247
2039196
2039134
2039103
2039067
2039074
2039086
2039164
2039239
2039297
2039365
2039467
2039560
2039657
2039767
2039903
2040024
2040109
2039841
2039439
2039129
2038947
2038730
2038475
2038310
2038212
2038090
2038001
2037926
2037847
2037807
2037799
2037853
2037895
2037928
2038010
2038101
2038166
2038264
2038364
2038490
2038603
2038659
2038326
2037846
2037452
2037167
2036908
2036668
2036434
2036301
2036170
2035983
2035865
2035785
2035770
2035743
2035744
2035793
2035820
2035881
2035921
2035994
2036122
2036213
2036310
2036413
2036266
2035738
2035317
2035026
2034853
2034639
2034470
2034413
2034337
2034288
2034222
2034214
2034259
2034327
2034413
2034511
2034646
2034781
2034938
2035035
2035182
2035358
2035548
2035703
2035720
2035345
2034948
2034710
2034576
2034392
2034214
2034164
2034162
2034140
2034186
2034188
2034228
2034343
2034450
2034581
2034717
2034882
2035021
2035204
2035391
2035592
2035781
2035991
2036243
2036449
2036355
2036005
2035771
2035661
2035575
2035488
2035438
2035438
2035507
2035516
2035565
2035636
2035757
2035856
2035963
2036169
2036327
2036519
2036689
2036828
2036974
2037188
2037352
2037539
2037749
2037754
2037543
2037340
2037254
2037212
2037144
2037140
2037150
2037184
2037213
2037224
2037285
2037358
2037455
2037544
2037644
2037798
2037930
2038057
2038199
2038388
2038536
2038692
2038909
2038879
2038682
2038450
2038383
2038317
2038259
2038210
2038262
2038316
2038334
2038351
2038420
2038509
2038604
2038717
2038820
2038918
2039058
2039227
2039343
2039506
2039649
2039829
2039997
2040100
2039893
2039630
2039460
2039357
2039247
2039144
2039060
2039049
2039040
2039022
2038988
2039003
2039061
2039095
2039168
2039263
2039337
2039852
2043238
2049279
2054851
2060294
2064854
2066114
2065628
2065408
2065784
2067496
2068073
2066634
2065299
2064140
2063537
2063166
2062813
2062486
2062204
2061976
2061808
2061627
2061512
2061427
2061386
2061326
2061270
2061249
2061234
2061230
2061231
2061248
2061172
2060686
2059993
2059414
2058928
2058535
2058106
2057675
2057198
2056923
2056650
2056376
2056129
2055960
2055759
2055625
2055522
2055420
2055377
2055301
2055240
2055225
2055213
2055189
2055168
2054751
2053995
2053249
2052745
2052350
2051946
2051572
2051263
2051019
2050725
2050523
2050357
2050190
2050088
2050008
2049959
2049925
2049902
2050073
2050807
2052422
2055231
2057633
2058894
2059588
2059473
2059193
2059010
2059089
2059256
2059760
2060672
2061693
2062808
2063961
2064256
2065064
2065439
2065010
2063427
2062350
2061643
2061473
2061509
2061568
2061545
2061454
2061299
2061178
2060734
2060215
2059824
2059612
2059481
2059314
2059217
2059144
2059086
2059009
2058982
2058967
2058970
2059034
2059063
2059136
2059224
2059306
2059377
2059465
2059570
2059658
2059762
2059553
2059276
2059021
2058897
2058762
2058628
2058529
2058535
2058528
2058524
2058511
2058531
2058579
2058616
2058680
2058758
2058832
2058913
2059002
2059062
2059153
2059251
2059333
2059433
2059319
2059089
2058893
2058805
2058707
2058599
2058551
2058543
2058515
2058477
2058490
2058484
2058520
2058535
2058564
2058637
2058662
2058714
2058764
2058836
2058894
2058977
2059019
2059066
2059163
2059062
2058745
2058534
2058393
2058259
2058127
2058012
2057914
2057880
2057768
2057653
2057537
2057379
2057385
2057376
2057350
2057356
2057365
2057356
2057360
2057383
2057390
2057383
2057437
2057522
2057266
2056955
2056662
2056427
2056251
2056014
2055812
2055655
2055557
2055408
2055255
2055127
2055026
2054924
2054837
2054783
2054648
2054614
2054551
2054492
2054460
2054388
2054337
2054289
2053883
2053442
2052993
2052638
2052320
2051981
2051715
2051479
2051261
2051020
2050830
2050629
2050488
2050354
2050219
2050122
2050021
2049947
2049857
2049775
2049713
2049634
2049594
2049532
2049472
2049177
2048872
2048409
2048032
2047633
2047238
2046862
2046622
2046390
2046133
2045931
2045716
2045551
2045409
2045295
2045184
2045143
2045042
2044943
2044932
2044889
2044850
2044830
2044836
2044826
2044855
2044662
2044058
2043504
2043112
2042813
2042482
2042118
2041902
2041729
2041527
2041351
2041190
2041063
2040981
2040927
2040885
2040875
2040861
2040863
2040876
2040898
2040893
2040948
2040999
2041045
2041086
2040927
2040252
2039607
2039293
2039057
2038776
2038560
2038417
2038285
2038168
2038041
2037949
2037901
2037875
2037883
2037895
2037915
2037957
2038009
2038080
2038159
2038233
2038339
2038446
2038409
2038011
2037621
2037363
2037195
2037027
2036818
2036758
2036779
2036782
2036783
2036776
2036761
2036775
2036790
2036843
2036899
2036974
2037070
2037156
2037284
2037377
2037476
2037632
2037783
2037786
2037463
2037087
2036883
2036729
2036589
2036433
2036346
2036310
2036272
2036221
2036228
2036253
2036324
2036384
2036465
2036573
2036693
2036796
2036902
2037034
2037144
2037286
2037456
2037584
2037618
2037316
2037034
2036878
2036714
2036591
2036438
2036355
2036323
2036308
2036280
2036233
2036257
2036306
2036351
2036434
2036487
2036572
2036659
2036748
2036873
2036972
2037109
2037233
2037370
2037325
2037017
2036712
2036570
2036448
2036314
2036178
2036101
2036019
2035961
2035916
2035907
2035866
2035934
2035947
2036044
2036155
2036238
2036328
2036397
2036489
2036623
2036730
2036749
2036454
2036074
2035848
2035717
2035531
2035367
2035276
2035235
2035167
2035143
2035129
2035157
2035198
2035260
2035327
2035413
2035498
2035585
2035692
2035835
2035967
2036139
2036290
2036441
2036442
2036133
2035769
2035565
2035384
2035239
2035049
2034943
2034884
2034810
2034761
2034691
2034631
2034625
2034646
2034730
2034790
2034861
2034957
2035036
2035131
2035258
2035383
2035534
2035624
2035792
2035856
2035662
2035289
2035038
2034873
2034738
2034534
2034386
2034339
2034270
2034239
2034208
2034184
2034202
2034284
2034358
2034455
2034515
2034627
2034724
2034841
2034951
2035085
2035213
2035344
2035481
2035570
2035331
2034981
2034729
2034602
2034441
2034279
2034162
2034130
2034093
2034047
2033984
2034001
2033998
2034045
2034108
2034182
2034261
2034357
2034432
2034538
2034658
2034752
2034880
2035019
2035119
2034923
2034565
2034290
2034145
2033974
2033786
2033722
2033672
2033652
2033600
2033551
2033570
2033626
2033706
2033765
2033860
2033943
2034051
2034167
2034315
2034446
2034566
2034716
2034889
2035031
2035181
2035040
2034691
2034402
2034198
2034074
2033916
2033797
2033752
2033696
2033701
2033648
2033639
2033671
2033725
2033826
2033887
2033975
2034119
2034218
2034322
2034487
2034622
2034804
2034942
2035136
2035277
2035440
2035505
2035253
2034923
2034695
2034543
2034436
2034271
2034211
2034172
2034166
2034124
2034112
2034130
2034184
2034245
2034328
2034420
2034538
2034649
2034729
2034873
2034996
2035119
2035279
2035404
2035557
2035715
2035862
2035720
2035442
2035204
2035079
2034998
2034903
2034827
2034818
2034798
2034783
2034777
2034805
2034851
2034931
2035034
2035118
2035206
2035320
2035444
2035562
2035710
2035821
2035956
2036178
2036326
2036465
2036248
2035878
2035682
2035581
2035481
2035365
2035303
2035293
2035270
2035283
2035241
2035278
2035335
2035375
2035464
2035548
2035645
2035742
2035868
2035984
2036170
2036310
2036451
2036595
2036735
2036919
2037074
2037176
2036965
2036671
2036444
2036283
2036159
2035977
2035881
2035848
2035820
2035758
2035707
2035739
2035748
2035813
2035855
2035938
2036010
2036085
2036222
2036312
2036433
2036546
2036655
2036797
2036900
2037036
2037179
2037206
2036891
2036541
2036283
2036070
2035895
2035692
2035565
2035539
2035470
2035394
2035339
2035320
2035333
2035375
2035429
2035483
2035570
2035617
2035708
2035767
2035869
2035955
2036113
2036244
2036355
2036452
2036374
2035902
2035486
2035204
2035034
2034827
2034638
2034547
2034472
2034370
2034268
2034233
2034235
2034254
2034300
2034360
2034413
2034521
2034608
2034712
2034831
2034959
2035087
2035233
2035353
2035163
2034758
2034446
2034250
2034087
2033883
2033778
2033763
2033699
2033615
2033598
2033605
2033651
2033722
2033782
2033844
2033932
2034059
2034156
2034282
2034397
2034544
2034715
2034899
2035028
2034891
2034575
2034332
2034234
2034132
2034013
2033900
2033935
2033959
2033978
2034023
2034077
2034189
2034277
2034365
2034469
2034528
2034506
2034450
2034448
2034400
2033917
2033271
2032778
2032529
2032355
2032088
2031907
2031918
2032037
2032389
2033138
2034085
2035175
2036399
2037349
2037856
2038269
2038680
2039028
2039301
2039587
2039811
2040079
2040529
2040837
2041017
2041186
2041366
2041568
2041782
2041960
2042102
2042053
2041971
2041932
2041988
2041977
2041971
2041982
2042023
2042078
2042103
2042154
2042238
2042317
2042461
2042556
2042666
2042813
2042901
2043050
2043207
2043349
2043476
2043596
2043496
2043403
2043331
2043325
2043289
2043231
2043248
2043295
2043344
2043387
2043380
2043431
2043478
2043539
2043635
2043732
2043825
2043924
2044047
2044180
2044282
2044386
2044543
2044652
2044492
2044278
2044161
2044067
2043959
2043834
2043751
2043730
2043736
2043704
2043683
2043686
2043714
2043743
2043826
2043882
2043926
2043995
2044097
2044174
2044278
2044374
2044519
2044640
2044683
2044386
2044100
2043853
2043694
2043504
2043282
2043113
2042997
2042902
2042827
2042730
2042666
2042620
2042631
2042638
2042656
2042679
2042722
2042727
2042787
2042823
2042910
2042980
2043043
2043123
2042955
2042520
2042129
2041840
2041604
2041331
2041087
2040935
2040786
2040530
2040163
2040063
2039970
2039969
2039922
2039959
2039964
2040001
2040047
2040068
2040145
2040193
2040555
2040757
2040792
2040075
2039578
2039210
2038942
2038707
2038449
2038273
2038167
2038096
2038012
2037955
2037892
2037900
2037915
2037985
2038041
2038133
2038211
2038308
2038411
2038558
2038685
2038812
2038944
2039110
2039126
2038756
2038314
2038069
2037886
2037746
2037537
2037469
2037457
2037455
2037443
2037461
2037485
2037559
2037679
2037778
2037914
2038053
2038182
2038335
2038467
2038653
2038812
2038987
2039181
2039349
2039515
2039603
2039349
2039062
2038877
2038800
2038740
2038688
2038661
2038709
2038713
2038753
2038810
2038857
2038977
2039083
2039202
2039319
2039449
2039597
2039747
2039876
2040045
2040282
2040758
2040940
2041137
2041164
2040949
2040724
2040542
2040556
2040473
2040497
2040515
2040641
2040754
2040788
2040850
2040975
2041051
2041185
2041341
2041441
2041579
2041721
2041884
2042035
2042191
2042340
2042516
2042704
2042897
2043031
2042866
2042639
2042513
2042456
2042433
2042375
2042353
2042357
2042385
2042382
2042393
2042409
2042478
2042545
2042598
2042722
2042794
2042909
2043006
2043128
2043224
2043335
2043470
2043597
2043735
2043812
2043907
2043690
2043420
2043227
2043117
2042984
2042851
2042792
2042730
2042679
2042593
2042553
2042523
2042509
2042530
2042555
2042582
2042606
2042678
2042727
2042781
2042867
2042955
2043054
2043116
2043224
2043184
2042855
2042512
2042262
2042089
2041902
2041759
2041654
2041564
2041463
2041355
2041255
2041235
2041233
2041255
2041262
2041287
2041359
2041384
2041447
2041528
2041595
2041693
2041797
2041942
2041980
2042149
2041888
2041516
2041130
2040898
2040609
2040129
2039897
2039784
2039734
2039622
2039556
2039525
2039459
2039490
2039533
2039555
2039632
2039690
2039777
2039820
2039946
2040037
2040159
2040355
2040749
2040871
2041015
2040914
2040140
2039740
2039500
2039348
2039157
2039012
2038895
2038843
2038772
2038725
2038695
2038702
2038722
2038798
2038843
2038911
2039018
2039062
2039171
2039245
2039351
2039507
2039624
2039734
2039867
2040006
2039899
2039549
2039187
2038981
2038860
2038735
2038605
2038539
2038515
2038473
2038437
2038408
2038411
2038447
2038524
2038556
2038681
2038754
2038847
2038948
2039071
2039174
2039306
2039436
2039593
2039718
2039817
2039514
2039141
2038865
2038723
2038614
2038466
2038340
2038279
2038242
2038190
2038158
2038182
2038175
2038230
2038299
2038397
2038467
2038570
2038633
2038737
2038873
2039007
2039126
2039242
2039359
2039428
2039174
2038766
2038449
2038250
2038096
2037947
2037790
2037733
2037683
2037643
2037580
2037602
2037585
2037637
2037698
2037763
2037834
2037933
2038021
2038122
2038225
2038321
2038424
2038544
2038646
2038786
2038729
2038309
2037913
2037632
2037414
2037226
2037059
2036986
2036928
2036824
2036746
2036720
2036712
2036716
2036767
2036798
2036858
2036939
2037002
2037084
2037145
2037233
2037335
2037439
2037556
2037416
2036931
2036503
2036221
2035967
2035746
2035547
2035428
2035357
2035283
2035215
2035202
2035205
2035212
2035269
2035317
2035423
2035496
2035579
2035680
2035805
2035911
2036116
2036282
2036436
2036582
2036345
2035831
2035442
2035215
2035055
2034847
2034703
2034657
2034605
2034608
2034556
2034558
2034594
2034653
2034747
2034843
2034920
2035008
2035139
2035278
2035405
2035541
2035694
2035865
2036007
2036223
2036014
2035626
2035253
2035022
2034884
2034766
2034637
2034643
2034613
2034589
2034545
2034568
2034619
2034684
2034792
2034897
2035012
2035113
2035234
2035403
2035507
2035654
2035845
2036032
2036188
2035843
2035465
2035226
2035107
2034998
2034876
2034781
2034798
2034836
2034815
2034830
2034884
2034984
2035074
2035199
2035320
2035467
2035581
2035755
2035925
2036118
2036312
2036497
2036650
2036851
2036866
2036538
2036176
2035946
2035835
2035691
2035600
2035592
2035564
2035585
2035579
2035597
2035663
2035740
2035866
2035983
2036123
2036289
2036423
2036578
2036725
2036872
2037002
2037186
2037363
2037446
2037163
2036818
2036590
2036442
2036342
2036251
2036164
2036150
2036158
2036095
2036115
2036158
2036203
2036304
2036396
2036500
2036604
2036715
2036860
2036995
2037149
2037296
2037468
2037658
2037424
2037067
2036808
2036646
2036535
2036405
2036332
2036318
2036329
2036329
2036318
2036353
2036451
2036538
2036629
2036742
2036862
2037014
2037151
2037308
2037445
2037602
2037801
2037969
2038147
2038280
2038018
2037671
2037466
2037358
2037249
2037142
2037085
2037084
2037105
2037114
2037122
2037175
2037278
2037352
2037467
2037583
2037740
2037905
2038031
2038171
2038339
2038502
2038655
2038824
2038970
2039067
2038776
2038482
2038289
2038179
2038099
2037999
2037954
2037974
2037969
2037967
2037940
2038020
2038089
2038200
2038288
2038414
2038512
2038636
2038773
2038901
2039051
2039238
2039368
2039530
2039465
2039160
2038869
2038733
2038642
2038575
2038489
2038465
2038519
2038489
2038518
2038561
2038643
2038686
2038816
2038960
2039096
2039208
2039353
2039495
2039631
2039800
2039961
2040158
2040556
2040822
2040369
2039952
2039745
2039660
2039562
2039503
2039436
2039443
2039462
2039480
2039494
2039537
2039604
2039710
2039791
2039947
2040048
2040433
2040544
2040702
2040911
2041067
2041217
2041377
2041531
2041725
2041559
2041267
2041037
2040927
2040875
2040802
2040645
2040685
2040728
2040644
2040588
2040659
2040658
2040812
2040885
2040977
2041044
2041184
2041274
2041379
2041491
2041608
2041734
2041885
2041986
2041771
2041453
2041212
2041086
2040971
2040859
2040743
2040766
2040683
2040699
2040664
2040600
2040746
2040824
2040911
2040956
2041072
2041206
2041289
2041418
2041548
2041652
2041798
2041942
2042080
2042179
2041846
2041517
2041253
2041085
2040949
2040750
2040683
2040491
2040193
2040142
2040119
2040072
2040088
2040116
2040158
2040337
2040663
2040743
2040808
2040921
2041000
2041126
2041211
2041333
2041438
2041526
2041210
2040819
2040357
2039939
2039745
2039561
2039407
2039338
2039239
2039100
2039047
2039016
2039007
2039009
2039034
2039048
2039091
2039166
2039229
2039291
2039361
2039472
2039573
2039685
2039401
2038919
2038563
2038371
2038158
2037978
2037830
2037745
2037692
2037618
2037575
2037553
2037582
2037627
2037677
2037760
2037876
2037970
2038067
2038171
2038283
2038419
2038572
2038676
2038852
2038939
2038599
2038167
2037775
2037585
2037380
2037209
2037109
2037079
2037041
2036978
2036994
2036990
2037035
2037091
2037183
2037271
2037383
2037492
2037616
2037741
2037897
2038038
2038216
2038367
2038524
2038584
2038220
2037846
2037662
2037533
2037415
2037311
2037249
2037269
2037276
2037286
2037294
2037336
2037428
2037560
2037676
2037792
2037945
2038079
2038183
2038377
2038534
2038667
2038847
2038908
2038650
2038357
2038208
2038129
2038089
2038035
2038065
2038122
2038152
2038181
2038253
2038347
2038438
2038590
2038722
2038855
2038981
2039123
2039295
2039455
2039592
2039796
2039965
2040019
2039769
2039565
2039444
2039391
2039338
2039264
2039297
2039354
2039392
2039432
2039456
2039545
2039669
2039793
2039934
2040095
2040293
2040704
2040928
2041081
2041261
2041445
2041637
2041777
2041633
2041411
2041294
2041284
2041252
2041207
2041195
2041279
2041316
2041405
2041457
2041556
2041662
2041774
2041919
2042044
2042241
2042471
2042614
2042795
2042971
2043117
2043310
2043535
2043559
2043517
2043521
2043626
2043674
2043643
2043653
2043671
2043662
2043690
2043702
2043741
2043815
2043856
2043920
2043983
2044074
2044166
2044227
2044323
2044458
2044564
2044749
2044560
2044331
2044158
2044056
2043996
2043916
2043858
2043849
2043864
2043852
2043875
2043926
2043982
2044069
2044142
2044221
2044280
2044391
2044525
2044637
2044801
2044909
2045031
2045114
2044829
2044548
2044404
2044311
2044173
2044025
2043979
2043988
2043974
2043900
2043899
2043908
2043945
2044003
2044050
2044123
2044182
2044283
2044360
2044459
2044594
2044707
2044861
2044912
2044672
2044296
2044049
2043895
2043731
2043548
2043417
2043358
2043278
2043227
2043174
2043171
2043155
2043179
2043221
2043259
2043332
2043393
2043496
2043576
2043638
2043733
2043850
2043947
2043728
2043370
2043050
2042832
2042694
2042500
2042388
2042331
2042276
2042167
2042127
2042095
2042100
2042125
2042169
2042205
2042286
2042347
2042394
2042522
2042598
2042701
2042823
2042839
2042516
2042101
2041833
2041687
2041507
2041356
2041213
2041196
2041129
2041056
2041019
2040995
2041062
2041111
2041157
2041243
2041325
2041434
2041522
2041632
2041773
2041923
2042053
2042187
2042058
2041688
2041345
2041180
2041051
2040908
2040787
2040668
2040604
2040570
2040536
2040529
2040690
2040769
2040815
2040912
2041006
2041131
2041233
2041366
2041488
2041618
2041768
2041888
2042012
2041850
2041487
2041176
2040995
2040905
2040773
2040521
2040482
2040256
2040298
2040176
2040171
2040158
2040257
2040282
2040612
2040756
2040818
2040903
2040986
2041121
2041246
2041370
2041396
2041045
2040679
2040155
2040021
2039907
2039817
2039768
2039779
2039760
2039724
2039737
2039787
2039850
2039938
2040032
2040098
2040191
2040545
2040646
2040864
2040956
2041093
2041226
2041332
2041061
2040550
2040018
2039866
2039691
2039573
2039504
2039499
2039472
2039438
2039421
2039440
2039479
2039559
2039634
2039718
2039782
2039930
2040029
2040105
2040368
2040728
2040846
2041009
2040828
2040093
2039753
2039518
2039380
2039228
2039087
2039042
2038985
2038928
2038876
2038826
2038829
2038850
2038880
2038953
2039019
2039120
2039193
2039302
2039405
2039510
2039641
2039828
2039783
2039399
2039017
2038779
2038629
2038469
2038340
2038286
2038214
2038121
2038059
2038011
2038001
2038033
2038072
2038116
2038151
2038229
2038304
2038381
2038471
2038597
2038679
2038577
2038139
2037716
2037443
2037273
2037084
2036917
2036845
2036805
2036747
2036678
2036663
2036662
2036703
2036752
2036816
2036913
2036997
2037087
2037205
2037338
2037448
2037588
2037676
2037382
2036893
2036525
2036282
2036078
2035835
2035691
2035652
2035607
2035542
2035480
2035483
2035496
2035546
2035632
2035708
2035801
2035919
2036020
2036186
2036310
2036472
2036615
2036765
2036584
2036106
2035697
2035527
2035347
2035204
2035044
2035059
2035050
2035012
2035006
2035009
2035073
2035144
2035278
2035403
2035500
2035639
2035799
2035927
2036138
2036300
2036460
2036640
2036633
2036296
2035918
2035756
2035687
2035613
2035515
2035551
2035545
2035579
2035606
2035646
2035720
2035833
2035940
2036137
2036307
2036461
2036604
2036764
2036912
2037088
2037288
2037158
2036876
2036694
2036620
2036576
2036533
2036523
2036575
2036585
2036614
2036651
2036731
2036844
2036988
2037126
2037283
2037443
2037604
2037792
2037975
2038164
2038380
2038544
2038380
2038168
2038072
2038035
2037987
2037938
2037962
2038027
2038091
2038134
2038204
2038282
2038386
2038516
2038661
2038760
2038895
2039050
2039224
2039381
2039524
2039665
2039812
2039683
2039448
2039320
2039221
2039158
2039082
2039069
2039075
2039126
2039122
2039156
2039221
2039284
2039352
2039462
2039560
2039680
2039790
2039895
2040018
2040183
2040129
2039905
2039742
2039687
2039620
2039569
2039539
2039557
2039597
2039646
2039683
2039745
2039855
2039963
2040068
2040406
2040594
2040827
2040961
2041121
2041295
2041444
2041406
2041245
2041114
2041075
2041022
2040949
2040975
2041004
2041071
2041128
2041197
2041263
2041393
2041517
2041667
2041809
2041974
2042136
2042287
2042473
2042644
2042808
2042813
2042660
2042545
2042476
2042474
2042373
2042357
2042431
2042469
2042508
2042578
2042636
2042732
2042813
2042937
2043038
2043145
2043254
2043382
2043486
2043656
2043775
2043814
2043648
2043460
2043405
2043357
2043290
2043230
2043239
2043254
2043265
2043265
2043285
2043377
2043413
2043492
2043573
2043660
2043754
2043837
2043939
2044025
2044075
2043857
2043654
2043554
2043463
2043378
2043272
2043257
2043261
2043260
2043262
2043268
2043296
2043324
2043407
2043453
2043544
2043611
2043707
2043793
2043902
2044010
2044087
2043860
2043556
2043441
2043317
2043173
2043031
2042936
2042882
2042880
2042816
2042800
2042815
2042844
2042910
2042955
2043020
2043103
2043175
2043248
2043320
2043421
2043505
2043362
2043035
2042759
2042575
2042403
2042199
2042084
2041993
2041943
2041849
2041782
2041739
2041728
2041712
2041748
2041761
2041808
2041828
2041863
2041948
2042018
2041923
2041564
2041236
2040971
2040694
2040199
2040009
2039907
2039856
2039760
2039676
2039640
2039613
2039594
2039624
2039647
2039688
2039709
2039760
2039815
2039885
2039967
2039898
2039514
2039119
2038817
2038602
2038344
2038122
2037987
2037918
2037841
2037774
2037701
2037681
2037688
2037702
2037769
2037825
2037884
2037949
2038041
2038116
2038213
2038215
2037812
2037369
2037075
2036872
2036668
2036561
2036602
2036701
2036723
2036713
2036711
2036719
2036720
2036731
2036779
2036817
2036869
2036923
2037001
2037085
2037175
2037204
2036918
2036438
2036057
2035832
2035630
2035451
2035346
2035272
2035239
2035160
2035142
2035132
2035177
2035250
2035344
2035451
2035537
2035643
2035771
2035922
2036055
2035849
2035452
2035129
2034969
2034801
2034669
2034566
2034561
2034597
2034590
2034575
2034633
2034711
2034792
2034922
2035060
2035191
2035330
2035470
2035632
2035813
2035979
2036177
2035930
2035588
2035385
2035291
2035205
2035114
2035058
2035091
2035152
2035185
2035223
2035306
2035405
2035525
2035732
2035832
2035995
2036201
2036372
2036525
2036681
2036854
2037027
2037164
2036972
2036743
2036626
2036570
2036517
2036447
2036488
2036519
2036574
2036606
2036644
2036747
2036803
2036931
2037059
2037160
2037294
2037432
2037547
2037691
2037848
2037951
2037857
2037603
2037468
2037418
2037373
2037300
2037317
2037357
2037424
2037447
2037494
2037576
2037688
2037777
2037883
2038045
2038164
2038304
2038435
2038579
2038737
2038884
2038712
2038480
2038335
2038278
2038206
2038154
2038128
2038174
2038194
2038233
2038296
2038362
2038419
2038548
2038668
2038822
2038906
2039046
2039176
2039333
2039484
2039620
2039705
2039543
2039282
2039121
2039044
2038975
2038894
2038850
2038884
2038888
2038867
2038894
2038918
2038971
2039053
2039137
2039216
2039308
2039423
2039528
2039654
2039752
2039883
2039825
2039605
2039428
2039326
2039192
2039080
2039014
2039006
2038941
2038935
2038903
2038893
2038919
2038950
2039002
2039065
2039149
2039245
2039311
2039409
2039438
2039156
2038790
2038546
2038387
2038222
2038086
2037985
2037979
2037927
2037924
2037925
2037965
2038002
2038086
2038169
2038278
2038388
2038500
2038621
2038741
2038912
2038870
2038552
2038225
2038052
2037928
2037760
2037667
2037641
2037664
2037627
2037627
2037627
2037659
2037747
2037824
2037913
2038028
2038156
2038254
2038349
2038452
2038573
2038610
2038325
2037998
2037798
2037666
2037498
2037418
2037390
2037400
2037389
2037353
2037357
2037413
2037460
2037540
2037610
2037710
2037842
2037958
2038074
2038194
2038074
2037777
2037559
2037436
2037339
2037272
2037264
2037266
2037328
2037325
2037362
2037420
2037516
2037612
2037702
2037819
2037942
2038063
2038219
2038377
2038393
2038122
2037859
2037750
2037661
2037583
2037518
2037554
2037590
2037637
2037670
2037729
2037806
2037910
2038043
2038187
2038277
2038449
2038582
2038742
2038915
2039005
2038798
2038560
2038411
2038358
2038284
2038225
2038248
2038295
2038306
2038327
2038374
2038450
2038533
2038616
2038763
2038853
2038986
2039116
2039240
2039372
2039506
2039301
2039039
2038882
2038821
2038732
2038689
2038673
2038724
2038728
2038742
2038765
2038856
2038941
2039065
2039171
2039277
2039409
2039531
2039677
2039732
2039499
2039278
2039145
2039058
2038996
2038955
2038931
2038996
2038977
2039039
2039061
2039158
2039205
2039322
2039399
2039504
2039636
2039743
2039857
2040203
2040070
2039716
2039465
2039326
2039245
2039150
2039113
2039122
2039147
2039156
2039177
2039211
2039297
2039397
2039472
2039591
2039674
2039806
2039954
2040089
2040375
2040698
2040141
2039826
2039656
2039589
2039586
2039546
2039566
2039594
2039629
2039639
2039686
2039736
2039823
2039955
2040081
2040450
2040757
2040934
2041105
2041310
2041498
2041486
2041217
2040987
2040920
2040890
2040872
2040864
2040952
2040993
2040996
2041049
2041086
2041180
2041256
2041366
2041449
2041542
2041639
2041703
2041765
2041477
2041045
2040766
2040389
2040139
2039996
2039954
2039915
2039900
2039866
2039892
2039952
2040058
2040163
2040497
2040738
2040838
2041007
2041148
2041249
2040963
2040535
2039979
2039900
2039787
2039704
2039665
2039674
2039679
2039682
2039724
2039733
2039776
2039860
2039930
2040027
2040105
2040232
2040574
2040771
2040099
2039728
2039465
2039363
2039260
2039184
2039159
2039173
2039159
2039181
2039195
2039231
2039276
2039351
2039416
2039507
2039620
2039688
2039795
2039786
2039444
2039119
2038924
2038806
2038753
2038718
2038734
2038757
2038763
2038798
2038872
2038955
2039072
2039182
2039290
2039426
2039544
2039671
2039553
2039258
2039086
2039019
2038981
2038978
2039007
2039075
2039151
2039203
2039285
2039389
2039476
2039633
2039779
2039953
2040129
2040536
2040823
2040782
2040497
2040187
2040178
2040368
2040374
2040592
2040796
2040914
2040981
2041101
2041255
2041421
2041579
2041731
2041889
2042077
2042250
2042481
2042627
2042563
2042475
2042446
2042501
2042533
2042597
2042709
2042817
2042949
2043066
2043222
2043369
2043455
2043547
2043606
2043679
2043772
2043859
2043944
2044085
2044015
2043899
2043873
2043934
2044071
2044219
2044375
2044594
2044828
2044996
2045140
2045290
2045433
2045619
2045734
2045843
2045937
2046067
2046157
2046264
2046178
2046040
2045925
2045883
2045820
2045800
2045787
2045816
2045815
2045859
2045879
2045893
2045945
2045958
2046013
2046093
2046133
2046201
2046277
2046203
2045968
2045737
2045573
2045461
2045342
2045253
2045219
2045174
2045135
2045121
2045094
2045087
2045119
2045170
2045195
2045294
2045372
2045468
2045532
2045362
2045042
2044716
2044454
2044236
2044071
2043957
2043904
2043841
2043721
2043628
2043560
2043530
2043528
2043531
2043545
2043558
2043585
2043633
2043698
2043569
2043049
2042549
2042128
2041890
2041580
2041354
2041171
2041058
2040872
2040687
2040377
2040196
2040125
2040095
2040100
2040248
2040252
2040270
2040275
2040313
2039951
2039277
2038616
2038151
2037804
2037490
2037157
2037002
2036829
2036613
2036465
2036313
2036266
2036217
2036204
2036187
2036189
2036184
2036205
2036230
2035859
2035050
2034309
2033820
2033475
2033161
2032922
2032770
2032605
2032432
2032300
2032186
2032148
2032166
2032206
2032248
2032324
2032410
2032478
2032565
2032577
2031915
2031357
2030787
2030410
2030101
2029856
2029720
2029625
2029539
2029467
2029405
2029416
2029451
2029530
2029643
2029753
2029861
2030013
2030126
2030291
2030357
2029701
2028915
2028407
2028129
2027917
2027775
2027752
2027752
2027763
2027742
2027757
2027837
2027972
2028118
2028285
2028471
2028649
2028842
2029051
2029257
2029443
2029402
2028760
2028185
2027934
2027818
2027716
2027729
2027785
2027864
2027909
2027991
2028113
2028276
2028472
2028691
2028909
2029142
2029356
2029629
2029837
2029999
2029585
2029119
2028922
2028892
2028888
2028910
2029044
2029151
2029251
2029352
2029502
2029687
2029913
2030146
2030375
2030620
2030885
2031153
2031415
2031384
2031064
2030873
2030826
2030817
2030868
2030948
2031128
2031259
2031366
2031526
2031662
2031791
2031915
2032115
2032360
2032628
2032888
2033128
2033409
2033608
2033420
2033202
2033125
2033159
2033232
2033249
2033365
2033525
2033664
2033787
2033972
2034127
2034355
2034561
2034790
2034994
2035266
2035476
2035719
2035953
2036277
2036429
2036255
2036024
2035928
2035947
2035973
2036001
2036101
2036194
2036309
2036384
2036463
2036633
2036743
2036908
2037081
2037218
2037428
2037573
2037748
2037912
2038106
2038204
2037942
2037660
2037520
2037484
2037397
2037363
2037388
2037412
2037415
2037444
2037476
2037529
2037578
2037717
2037822
2037927
2038038
2038171
2038307
2038424
2038512
2038231
2037885
2037634
2037512
2037390
2037278
2037262
2037269
2037246
2037253
2037288
2037369
2037433
2037545
2037656
2037794
2037914
2038065
2038201
2038356
2038441
2038097
2037706
2037491
2037355
2037228
2037120
2037122
2037137
2037147
2037141
2037151
2037249
2037376
2037464
2037579
2037735
2037878
2038032
2038215
2038364
2038563
2038606
2038299
2037988
2037776
2037697
2037601
2037521
2037548
2037588
2037630
2037654
2037777
2037848
2038003
2038141
2038291
2038486
2038658
2038836
2039019
2039218
2039419
2039555
2039353
2039136
2039025
2039016
2039013
2039028
2039094
2039169
2039209
2039272
2039377
2039548
2039668
2039815
2040010
2040348
2040559
2040863
2041082
2041281
2041448
2041393
2041275
2041216
2041265
2041282
2041351
2041417
2041533
2041644
2041799
2041940
2042073
2042216
2042381
2042533
2042725
2042907
2043092
2043261
2043450
2043536
2043461
2043405
2043441
2043503
2043541
2043597
2043722
2043834
2043945
2044067
2044194
2044347
2044507
2044731
2044905
2045073
2045250
2045408
2045587
2045781
2045935
2045989
2045914
2045891
2045885
2045977
2045979
2046019
2046099
2046173
2046248
2046325
2046423
2046526
2046625
2046751
2046865
2046965
2047122
2047245
2047380
2047506
2047624
2047595
2047401
2047322
2047267
2047220
2047121
2047072
2047065
2047032
2046980
2046967
2046966
2046975
2047007
2047002
2047079
2047122
2047162
2047238
2047283
2047354
2047347
2047039
2046767
2046468
2046320
2046144
2045949
2045861
2045757
2045632
2045521
2045449
2045413
2045397
2045369
2045361
2045330
2045354
2045372
2045399
2045422
2045054
2044548
2044196
2043966
2043707
2043486
2043334
2043266
2043186
2043052
2042989
2042963
2042924
2042948
2042966
2043007
2043026
2043122
2043175
2043250
2043275
2042862
2042422
2042111
2041915
2041695
2041524
2041443
2041416
2041344
2041303
2041294
2041313
2041347
2041418
2041470
2041560
2041643
2041743
2041835
2041949
2041706
2041293
2041022
2040855
2040619
2040314
2040179
2040156
2040152
2040134
2040132
2040175
2040214
2040584
2040743
2040845
2040981
2041090
2041226
2041371
2041307
2041014
2040822
2040710
2040412
2040176
2040145
2040176
2040211
2040467
2040504
2040747
2040838
2040996
2041126
2041323
2041476
2041654
2041829
2041949
2041836
2041761
2041756
2041826
2041868
2041908
2042028
2042139
2042257
2042344
2042472
2042604
2042753
2042894
2043064
2043213
2043382
2043552
2043709
2043906
2043854
2043771
2043784
2043845
2043899
2043937
2044019
2044130
2044248
2044344
2044488
2044642
2044798
2044915
2045060
2045216
2045390
2045543
2045598
2045654
2045687
2045628
2045393
2045173
2045071
2044991
2044916
2044850
2044922
2044993
2045167
2045418
2045646
2045903
2046130
2046384
2046629
2046865
2047023
2047139
2047246
2047342
2047424
2047541
2047540
2047458
2047478
2047549
2047597
2047610
2047660
2047736
2047788
2047813
2047841
2047878
2047939
2047986
2048043
2048096
2048178
2048232
2048315
2048408
2048446
2048481
2048310
2048067
2047959
2047835
2047726
2047602
2047507
2047496
2047437
2047338
2047298
2047312
2047269
2047309
2047345
2047348
2047414
2047466
2047515
2047559
2047629
2047718
2047719
2047445
2047085
2046825
2046599
2046390
2046212
2046085
2046028
2045938
2045841
2045799
2045778
2045799
2045805
2045829
2045814
2045838
2045868
2045908
2045923
2045971
2046011
2046066
2045985
2045501
2045020
2044646
2044361
2044117
2043881
2043725
2043601
2043447
2043297
2043208
2043114
2043042
2043001
2042968
2042956
2042973
2042973
2042969
2043013
2043032
2043081
2043085
2042647
2042093
2041678
2041402
2041116
2040905
2040705
2040351
2040079
2039906
2039782
2039713
2039633
2039625
2039609
2039618
2039659
2039663
2039727
2039765
2039820
2039899
2039510
2038950
2038503
2038202
2037948
2037690
2037562
2037417
2037306
2037193
2037070
2037060
2037044
2037042
2037100
2037138
2037225
2037303
2037398
2037504
2037619
2037767
2037908
2037830
2037358
2036885
2036573
2036373
2036140
2035879
2035750
2035704
2035627
2035553
2035512
2035508
2035558
2035737
2035911
2036056
2036231
2036317
2036415
2036493
2036584
2036702
2036813
2036929
2036935
2036514
2036048
2035724
2035579
2035391
2035249
2035181
2035167
2035091
2035078
2035083
2035105
2035176
2035232
2035344
2035464
2035599
2035719
2035832
2035961
2036151
2036309
2036470
2036347
2035912
2035640
2035494
2035374
2035289
2035256
2035281
2035303
2035317
2035338
2035380
2035479
2035567
2035698
2035859
2036020
2036197
2036394
2036532
2036692
2036887
2037054
2036839
2036598
2036398
2036344
2036280
2036236
2036267
2036337
2036402
2036449
2036511
2036646
2036753
2036908
2037059
2037212
2037393
2037572
2037743
2037930
2038102
2038288
2038501
2038474
2038206
2037987
2037898
2037803
2037764
2037696
2037723
2037781
2037764
2037812
2037855
2037933
2038050
2038151
2038265
2038402
2038495
2038640
2038767
2038954
2039115
2039260
2039422
2039352
2039050
2038807
2038662
2038546
2038451
2038392
2038390
2038341
2038331
2038321
2038326
2038370
2038430
2038467
2038576
2038665
2038772
2038902
2038970
2039097
2039200
2039294
2039062
2038717
2038533
2038393
2038286
2038191
2038169
2038201
2038189
2038175
2038216
2038258
2038348
2038481
2038599
2038721
2038833
2038946
2039093
2039239
2039403
2039569
2039444
2039164
2038925
2038771
2038672
2038562
2038490
2038517
2038522
2038513
2038547
2038606
2038677
2038782
2038893
2039019
2039149
2039273
2039410
2039570
2039718
2039878
2040172
2040428
2040464
2039967
2039707
2039580
2039491
2039408
2039334
2039356
2039352
2039354
2039383
2039444
2039518
2039574
2039713
2039789
2039895
2040048
2040177
2040492
2040778
2040932
2041038
2041226
2041359
2041248
2040982
2040759
2040621
2040449
2040187
2040155
2040260
2040221
2040179
2040207
2040462
2040546
2040672
2040770
2040891
2041015
2041105
2041243
2041356
2041479
2041620
2041801
2041741
2041458
2041251
2041122
2041020
2040909
2040828
2040837
2040846
2040843
2040817
2040892
2040922
2041000
2041090
2041192
2041328
2041451
2041555
2041694
2041840
2041994
2042144
2042290
2042430
2042226
2041941
2041746
2041642
2041553
2041433
2041430
2041403
2041399
2041361
2041366
2041377
2041410
2041444
2041541
2041614
2041723
2041811
2041909
2042052
2042160
2042263
2042407
2042532
2042606
2042322
2042011
2041789
2041665
2041530
2041412
2041316
2041287
2041254
2041217
2041171
2041207
2041189
2041225
2041286
2041329
2041415
2041469
2041524
2041619
2041678
2041751
2041836
2041952
2041734
2041321
2040982
2040773
2040394
2040085
2039950
2039879
2039829
2039723
2039676
2039660
2039664
2039699
2039727
2039821
2039882
2039960
2040044
2040158
2040471
2040731
2040890
2040847
2040101
2039705
2039428
2039247
2039084
2038905
2038798
2038763
2038689
2038627
2038563
2038573
2038601
2038646
2038691
2038791
2038877
2039001
2039073
2039179
2039317
2039431
2039623
2039757
2039716
2039295
2038911
2038653
2038514
2038392
2038252
2038203
2038165
2038140
2038097
2038081
2038159
2038190
2038278
2038378
2038488
2038588
2038737
2038920
2039038
2039172
2039343
2039502
2039670
2039843
2039699
2039329
2039069
2038962
2038887
2038775
2038759
2038789
2038831
2038804
2038815
2038856
2038926
2039037
2039138
2039287
2039396
2039531
2039701
2039808
2039980
2040131
2040421
2040816
2040832
2040191
2039973
2039849
2039749
2039734
2039664
2039708
2039758
2039793
2039836
2039897
2039956
2040078
2040300
2040682
2040846
2041000
2041160
2041315
2041461
2041661
2041860
2042019
2042206
2042339
2042217
2041966
2041755
2041711
2041663
2041607
2041575
2041595
2041612
2041630
2041673
2041741
2041814
2041901
2042030
2042146
2042252
2042395
2042525
2042650
2042818
2042979
2043138
2043282
2043470
2043556
2043345
2043064
2042928
2042862
2042803
2042716
2042728
2042717
2042664
2042643
2042611
2042669
2042684
2042736
2042819
2042878
2042918
2043033
2043145
2043196
2043291
2043368
2043485
2043586
2043539
2043184
2042887
2042718
2042576
2042415
2042315
2042237
2042191
2042115
2042025
2042020
2042004
2042029
2042061
2042093
2042140
2042242
2042296
2042369
2042457
2042535
2042649
2042755
2042865
2042887
2042520
2042121
2041794
2041563
2041375
2041145
2041016
2040896
2040783
2040562
2040304
2040177
2040161
2040174
2040196
2040211
2040390
2040511
2040717
2040761
2040833
2040910
2041038
2041117
2041240
2041300
2040973
2040145
2039804
2039551
2039375
2039164
2038999
2038910
2038837
2038749
2038633
2038574
2038558
2038552
2038579
2038605
2038617
2038693
2038762
2038816
2038880
2038960
2039098
2039211
2039278
2039122
2038662
2038268
2038023
2037823
2037647
2037513
2037452
2037389
2037325
2037267
2037254
2037250
2037287
2037366
2037405
2037496
2037565
2037652
2037778
2037856
2037990
2038140
2038245
2038397
2038328
2037896
2037528
2037283
2037126
2036976
2036821
2036808
2036752
2036738
2036716
2036708
2036764
2036826
2036922
2037012
2037103
2037221
2037346
2037478
2037631
2037756
2037899
2038046
2038235
2038397
2038392
2038055
2037715
2037530
2037417
2037302
2037208
2037162
2037184
2037177
2037182
2037212
2037265
2037358
2037473
2037596
2037711
2037832
2037955
2038074
2038198
2038347
2038513
2038659
2038823
2038983
2038975
2038598
2038361
2038205
2038143
2038073
2037996
2038010
2037987
2037967
2037938
2037959
2038016
2038078
2038171
2038268
2038368
2038480
2038591
2038730
2038858
2039020
2039150
2039315
2039486
2039404
2039125
2038905
2038784
2038715
2038647
2038576
2038586
2038612
2038659
2038639
2038689
2038758
2038819
2038936
2039041
2039206
2039323
2039442
2039577
2039722
2039870
2040022
2040196
2040693
2040890
2040948
2040695
2040129
2039999
2039974
2039910
2039856
2039856
2039858
2039917
2039913
2039954
2040001
2040089
2040194
2040495
2040729
2040851
2040971
2041089
2041222
2041332
2041480
2041585
2041751
2041921
2042034
2041928
2041703
2041541
2041462
2041440
2041362
2041361
2041391
2041390
2041373
2041379
2041408
2041442
2041518
2041593
2041671
2041747
2041853
2041949
2042043
2042175
2042305
2042458
2042553
2042714
2042636
2042355
2042153
2042078
2041990
2041886
2041829
2041807
2041791
2041807
2041784
2041790
2041863
2041919
2041959
2042005
2042144
2042231
2042343
2042432
2042581
2042705
2042799
2042928
2043083
2043198
2043180
2042868
2042598
2042465
2042349
2042207
2042100
2042035
2042005
2041974
2041925
2041903
2041920
2041942
2042010
2042071
2042107
2042175
2042262
2042342
2042448
2042550
2042639
2042744
2042865
2043006
2043093
2042871
2042530
2042280
2042145
2042003
2041857
2041767
2041683
2041591
2041524
2041462
2041439
2041431
2041444
2041482
2041499
2041536
2041590
2041649
2041696
2041794
2041861
2041960
2042059
2042156
2041903
2041512
2041231
2041031
2040889
2040735
2040506
2040191
2040155
2040085
2040053
2040014
2040056
2040080
2040285
2040443
2040582
2040699
2040802
2040898
2040994
2041110
2041225
2041358
2041519
2041544
2041218
2040825
2040404
2040109
2039948
2039810
2039722
2039668
2039641
2039595
2039551
2039568
2039613
2039659
2039766
2039828
2039920
2040004
2040114
2040363
2040716
2040869
2041000
2041119
2041268
2041431
2041271
2040889
2040599
2040278
2040114
2039888
2039764
2039754
2039682
2039616
2039585
2039607
2039621
2039677
2039750
2039785
2039863
2039957
2040043
2040139
2040372
2040649
2040843
2040978
2041085
2040895
2040224
2039975
2039862
2039750
2039632
2039608
2039572
2039593
2039566
2039556
2039599
2039682
2039744
2039878
2039973
2040075
2040362
2040534
2040815
2040943
2041104
2041224
2041408
2041558
2041697
2041500
2041260
2041055
2040975
2040914
2040841
2040812
2040820
2040855
2040837
2040863
2040924
2040991
2041071
2041197
2041297
2041393
2041513
2041667
2041767
2041896
2042033
2042207
2042337
2042515
2042647
2042444
2042240
2042117
2042088
2042031
2041990
2041988
2042022
2042040
2042048
2042070
2042138
2042208
2042270
2042374
2042472
2042560
2042715
2042813
2042912
2043020
2043160
2043273
2043401
2043498
2043333
2043095
2042916
2042815
2042757
2042705
2042641
2042639
2042617
2042597
2042563
2042573
2042631
2042677
2042747
2042805
2042871
2042969
2043070
2043176
2043291
2043391
2043495
2043619
2043530
2043247
2043031
2042849
2042760
2042622
2042514
2042433
2042429
2042361
2042351
2042327
2042356
2042369
2042445
2042499
2042570
2042649
2042722
2042830
2042905
2043012
2043159
2043263
2043371
2043397
2043102
2042779
2042541
2042409
2042266
2042123
2041999
2041948
2041916
2041878
2041812
2041809
2041828
2041868
2041935
2041990
2042059
2042137
2042209
2042305
2042385
2042517
2042621
2042772
2042924
2042870
2042583
2042282
2042138
2041984
2041910
2041798
2041770
2041741
2041730
2041681
2041667
2041722
2041756
2041836
2041919
2041998
2042094
2042186
2042276
2042397
2042481
2042622
2042742
2042884
2042954
2042700
2042462
2042307
2042230
2042173
2042095
2042080
2042074
2042055
2042055
2042058
2042092
2042138
2042211
2042279
2042403
2042526
2042618
2042736
2042828
2042966
2043078
2043206
2043348
2043262
2043034
2042864
2042756
2042719
2042656
2042627
2042630
2042656
2042681
2042669
2042727
2042796
2042873
2042949
2043063
2043167
2043262
2043372
2043487
2043614
2043748
2043873
2044011
2044147
2044266
2044149
2043911
2043777
2043683
2043627
2043569
2043482
2043503
2043499
2043481
2043486
2043522
2043533
2043610
2043666
2043765
2043859
2043930
2044035
2044117
2044215
2044337
2044425
2044587
2044716
2044762
2044438
2044183
2044029
2043894
2043789
2043672
2043598
2043555
2043509
2043448
2043395
2043395
2043393
2043434
2043456
2043505
2043540
2043597
2043658
2043761
2043854
2043899
2044034
2044114
2043905
2043531
2043256
2043091
2042904
2042713
2042576
2042477
2042410
2042299
2042239
2042189
2042161
2042155
2042162
2042218
2042256
2042314
2042365
2042420
2042500
2042585
2042675
2042758
2042878
2042951
2042749
2042324
2041924
2041681
2041513
2041295
2041098
2040974
2040894
2040764
2040523
2040203
2040158
2040098
2040108
2040138
2040171
2040223
2040420
2040543
2040746
2040787
2040911
2041001
2041092
2041196
2041072
2040444
2039815
2039481
2039245
2039071
2038867
2038748
2038663
2038538
2038431
2038346
2038322
2038293
2038300
2038334
2038355
2038389
2038435
2038510
2038550
2038597
2038705
2038773
2038878
2038975
2038727
2038240
2037811
2037511
2037259
2037061
2036923
2036813
2036697
2036583
2036485
2036449
2036407
2036415
2036471
2036504
2036565
2036629
2036692
2036788
2036858
2036965
2037084
2037206
2036992
2036504
2036052
2035721
2035524
2035297
2035136
2035072
2035011
2034938
2034899
2034860
2034865
2034884
2034956
2035052
2035133
2035219
2035331
2035440
2035569
2035691
2035856
2036010
2036170
2035791
2035330
2034967
2034766
2034583
2034425
2034287
2034250
2034227
2034175
2034130
2034114
2034180
2034244
2034341
2034446
2034570
2034701
2034792
2034911
2035053
2035192
2035341
2035491
2035276
2034877
2034573
2034371
2034278
2034176
2034068
2034054
2034077
2034056
2034024
2034096
2034158
2034212
2034334
2034460
2034593
2034716
2034842
2035010
2035121
2035289
2035423
2035223
2034922
2034689
2034587
2034516
2034428
2034400
2034477
2034494
2034496
2034553
2034658
2034720
2034861
2035023
2035179
2035345
2035509
2035683
2035860
2036092
2036276
2036504
2036677
2036600
2036394
2036261
2036265
2036223
2036174
2036130
2036144
2036167
2036210
2036247
2036283
2036411
2036497
2036612
2036721
2036880
2037001
2037153
2037374
2037529
2037722
2037944
2038149
2038347
2038344
2038314
2038328
2038421
2038476
2038477
2038561
2038655
2038767
2038864
2038977
2039066
2039186
2039337
2039459
2039564
2039743
2039891
2040082
2040402
2040651
2040847
2040994
2041121
2041099
2041039
2041018
2041023
2041054
2041075
2041081
2041170
2041213
2041270
2041320
2041410
2041502
2041575
2041688
2041794
2041904
2042009
2042135
2042247
2042383
2042522
2042656
2042652
2042507
2042402
2042319
2042249
2042137
2042070
2042051
2042037
2042047
2042034
2042007
2042039
2042079
2042115
2042217
2042260
2042315
2042431
2042524
2042594
2042669
2042795
2042897
2043022
2043030
2042824
2042576
2042401
2042310
2042099
2041980
2041881
2041833
2041765
2041713
2041653
2041644
2041656
2041679
2041691
2041713
2041776
2041815
2041890
2041973
2042019
2042109
2042165
2042277
2042361
2042348
2042032
2041678
2041416
2041228
2041057
2040852
2040687
2040466
2040480
2040235
2039969
2039911
2039885
2039875
2039860
2039873
2039886
2039901
2039948
2039980
2040041
2040109
2040134
2040336
2040026
2039600
2039207
2038956
2038763
2038549
2038398
2038284
2038196
2038075
2037997
2037926
2037916
2037915
2037941
2037969
2038026
2038059
2038105
2038195
2038263
2038357
2038442
2038559
2038663
2038704
2038380
2037929
2037593
2037397
2037193
2037019
2036845
2036776
2036700
2036621
2036570
2036557
2036573
2036589
2036652
2036686
2036789
2036854
2036945
2037049
2037130
2037228
2037382
2037523
2037624
2037661
2037318
2036944
2036665
2036523
2036350
2036211
2036138
2036084
2036031
2035944
2035914
2035933
2035953
2036035
2036099
2036190
2036286
2036387
2036483
2036576
2036703
2036801
2036996
2037096
2036973
2036651
2036357
2036216
2036086
2035961
2035877
2035847
2035868
2035871
2035839
2035871
2035954
2036012
2036147
2036244
2036357
2036460
2036600
2036729
2036879
2036997
2037132
2037291
2037469
2037557
2037371
2037070
2036907
2036781
2036734
2036612
2036546
2036586
2036563
2036557
2036543
2036589
2036658
2036736
2036825
2036951
2037062
2037170
2037291
2037395
2037545
2037668
2037812
2037990
2038132
2038128
2037861
2037643
2037514
2037453
2037366
2037271
2037234
2037244
2037231
2037181
2037197
2037263
2037271
2037365
2037441
2037509
2037550
2037638
2037711
2037836
2037921
2038019
2038158
2038271
2038110
2037826
2037622
2037477
2037412
2037279
2037208
2037218
2037226
2037224
2037207
2037278
2037361
2037448
2037508
2037599
2037722
2037816
2037930
2038061
2038184
2038327
2038461
2038614
2038756
2038643
2038368
2038202
2038104
2038022
2037918
2037861
2037847
2037865
2037879
2037871
2037920
2037948
2038039
2038127
2038206
2038300
2038402
2038547
2038656
2038770
2038915
2039085
2039218
2039427
2039280
2039025
2038843
2038720
2038661
2038530
2038495
2038492
2038471
2038453
2038451
2038471
2038516
2038579
2038623
2038711
2038789
2038879
2038959
2039020
2039155
2039233
2039354
2039447
2039296
2039018
2038805
2038676
2038584
2038457
2038375
2038380
2038370
2038326
2038314
2038322
2038393
2038439
2038505
2038573
2038688
2038783
2038884
2038995
2039116
2039210
2039354
2039523
2039478
2039200
2038955
2038834
2038763
2038631
2038542
2038530
2038525
2038532
2038536
2038542
2038607
2038678
2038742
2038848
2038950
2039050
2039181
2039306
2039411
2039538
2039713
2039835
2039986
2039973
2039771
2039598
2039508
2039460
2039397
2039355
2039389
2039418
2039467
2039494
2039534
2039612
2039713
2039777
2039915
2040035
2040127
2040505
2040738
2040847
2040978
2041107
2041233
2041365
2041333
2041147
2041068
2041025
2040984
2040971
2040971
2041022
2041072
2041096
2041126
2041216
2041287
2041383
2041487
2041596
2041694
2041817
2041930
2042083
2042209
2042335
2042476
2042621
2042723
2042627
2042541
2042486
2042503
2042481
2042446
2042526
2042565
2042615
2042667
2042740
2042837
2042902
2043038
2043138
2043223
2043342
2043456
2043616
2043710
2043836
2043972
2044109
2044234
2044363
2044365
2044216
2044149
2044132
2044121
2044115
2044080
2044077
2044141
2044196
2044207
2044281
2044347
2044425
2044477
2044573
2044696
2044820
2044949
2045041
2045129
2045256
2045376
2045481
2045612
2045702
2045604
2045448
2045315
2045273
2045222
2045132
2045071
2045025
2045025
2044961
2044909
2044919
2044884
2044887
2044889
2044920
2044968
2044980
2045016
2045051
2045102
2045142
2045218
2045262
2045117
2044852
2044568
2044343
2044200
2044004
2043864
2043772
2043651
2043529
2043437
2043409
2043356
2043351
2043364
2043355
2043375
2043400
2043458
2043478
2043552
2043625
2043683
2043771
2043818
2043638
2043230
2042896
2042622
2042442
2042218
2042023
2041867
2041768
2041678
2041556
2041468
2041393
2041379
2041355
2041393
2041384
2041372
2041411
2041450
2041497
2041585
2041619
2041693
2041773
2041736
2041311
2040815
2040144
2039915
2039656
2039466
2039289
2039158
2039056
2038917
2038803
2038736
2038698
2038686
2038677
2038680
2038724
2038741
2038765
2038799
2038822
2038891
2038918
2038999
2039075
2038746
2038207
2037833
2037592
2037359
2037151
2036973
2036881
2036786
2036649
2036568
2036508
2036474
2036459
2036501
2036511
2036542
2036579
2036633
2036685
2036748
2036845
2036895
2036866
2036439
2035937
2035635
2035432
2035246
2035033
2034932
2034853
2034814
2034731
2034696
2034670
2034728
2034783
2034838
2034912
2034987
2035088
2035205
2035323
2035560
2036108
2036704
2037196
2037399
2037265
2037021
2036886
2036762
2036585
2036369
2036229
2036102
2035933
2035852
2035797
2035802
2035790
2035826
2035883
2035970
2036112
2036180
2036277
2036389
2036551
2036694
2036841
2036948
2037013
2036774
2036466
2036285
2036186
2036048
2035978
2035939
2035953
2035932
2035974
2035963
2036046
2036173
2036283
2036378
2036466
2036557
2036684
2036802
2036912
2037020
2037151
2037277
2037386
2037182
2036872
2036728
2036696
2036650
2036603
2036616
2036637
2036642
2036642
2036693
2036740
2036811
2036919
2037037
2037137
2037283
2037359
2037514
2037650
2037783
2037906
2037977
2037776
2037577
2037469
2037411
2037301
2037229
2037196
2037234
2037199
2037204
2037227
2037289
2037348
2037413
2037516
2037608
2037704
2037848
2037917
2038064
2038186
2038349
2038459
2038296
2038061
2037842
2037704
2037588
2037459
2037327
2037304
2037290
2037234
2037202
2037205
2037250
2037270
2037335
2037413
2037477
2037576
2037676
2037755
2037878
2037976
2038093
2038076
2037776
2037487
2037302
2037163
2037027
2036900
2036862
2036855
2036798
2036766
2036780
2036829
2036854
2036908
2036989
2037103
2037214
2037271
2037364
2037487
2037572
2037677
2037495
2037211
2036984
2036860
2036737
2036637
2036591
2036598
2036564
2036586
2036597
2036631
2036693
2036764
2036867
2036939
2037046
2037168
2037280
2037394
2037529
2037666
2037754
2037581
2037378
2037272
2037237
2037190
2037120
2037113
2037184
2037216
2037260
2037317
2037390
2037543
2037665
2037795
2037906
2038075
2038230
2038406
2038531
2038699
2038861
2039041
2039008
2038861
2038814
2038826
2038825
2038793
2038806
2038859
2038923
2039015
2039096
2039170
2039294
2039376
2039532
2039627
2039764
2039900
2040018
2040169
2040639
2040794
2041019
2041251
2041456
2041470
2041406
2041378
2041391
2041383
2041364
2041398
2041447
2041496
2041525
2041545
2041633
2041707
2041760
2041845
2041943
2042017
2042119
2042210
2042311
2042402
2042503
2042608
2042713
2042617
2042507
2042432
2042388
2042364
2042309
2042296
2042309
2042298
2042284
2042286
2042291
2042305
2042373
2042410
2042433
2042503
2042568
2042604
2042656
2042741
2042817
2042853
2042627
2042417
2042251
2042106
2041977
2041826
2041732
2041650
2041594
2041504
2041411
2041405
2041372
2041369
2041368
2041382
2041443
2041469
2041495
2041541
2041610
2041659
2041705
2041748
2041515
2041137
2040817
2040387
2040021
2039769
2039598
2039448
2039327
2039209
2039084
2038994
2038938
2038904
2038858
2038853
2038865
2038886
2038879
2038924
2038950
2038998
2039049
2039100
2039036
2038586
2038124
2037759
2037485
2037229
2036966
2036768
2036629
2036469
2036327
2036207
2036115
2036063
2036014
2035949
2035954
2035974
2036004
2035991
2036032
2036105
2036156
2036238
2036322
2036113
2035546
2035118
2034817
2034600
2034370
2034219
2034108
2034040
2033930
2033839
2033780
2033779
2033789
2033819
2033878
2033927
2033985
2034087
2034143
2034250
2034361
2034492
2034614
2034737
2034480
2034025
2033673
2033493
2033363
2033211
2033125
2033090
2033070
2033044
2033048
2033056
2033122
2033202
2033313
2033422
2033539
2033699
2033817
2033968
2034132
2034281
2034432
2034621
2034799
2034980
2034725
2034417
2034245
2034153
2034119
2034029
2034010
2034048
2034081
2034110
2034152
2034219
2034320
2034434
2034589
2034696
2034825
2035000
2035171
2035293
2035458
2035611
2035809
2035994
2036205
2036253
2035990
2035771
2035692
2035674
2035661
2035606
2035678
2035698
2035745
2035788
2035835
2035899
2036045
2036166
2036337
2036464
2036577
2036715
2036863
2037005
2037144
2037305
2037472
2037612
2037714
2037539
2037309
2037188
2037116
2037093
2037079
2037097
2037123
2037135
2037151
2037204
2037235
2037334
2037412
2037515
2037619
2037728
2037851
2037955
2038081
2038184
2038324
2038469
2038596
2038744
2038881
2038786
2038484
2038260
2038145
2038048
2037928
2037835
2037815
2037791
2037728
2037701
2037681
2037694
2037737
2037798
2037817
2037870
2037960
2038037
2038109
2038218
2038309
2038411
2038495
2038626
2038694
2038603
2038213
2037908
2037676
2037522
2037371
2037209
2037145
2037049
2036937
2036872
2036771
2036763
2036763
2036752
2036774
2036795
2036847
2036869
2036938
2036974
2037059
2037135
2037249
2037318
2037158
2036766
2036399
2036122
2035899
2035729
2035598
2035543
2035460
2035379
2035350
2035331
2035315
2035341
2035400
2035465
2035537
2035637
2035718
2035852
2035942
2036108
2036269
2036383
2036538
2036685
2036576
2036182
2035805
2035611
2035515
2035406
2035311
2035307
2035265
2035255
2035242
2035250
2035310
2035376
2035478
2035555
2035662
2035769
2035893
2036013
2036214
2036340
2036500
2036653
2036786
2036921
2036826
2036485
2036211
2036057
2035916
2035852
2035761
2035795
2035770
2035769
2035772
2035775
2035809
2035877
2035939
2036111
2036206
2036295
2036396
2036468
2036624
2036714
2036826
2036990
2037100
2036833
2036558
2036300
2036206
2036100
2035977
2035939
2035991
2035961
2035945
2035965
2036012
2036108
2036200
2036297
2036368
2036496
2036601
2036697
2036833
2036948
2037100
2037256
2037371
2037451
2037197
2036895
2036686
2036607
2036494
2036371
2036338
2036318
2036302
2036248
2036246
2036270
2036310
2036350
2036451
2036528
2036611
2036726
2036807
2036952
2037061
2037198
2037293
2037448
2037521
2037249
2036922
2036692
2036535
2036412
2036278
2036164
2036112
2036071
2035936
2035904
2035908
2035907
2035951
2036019
2036062
2036164
2036245
2036300
2036361
2036445
2036550
2036630
2036722
2036740
2036393
2035968
2035699
2035524
2035403
2035225
2035159
2035109
2035024
2034944
2034900
2034909
2034926
2034976
2035023
2035056
2035140
2035223
2035299
2035395
2035489
2035599
2035712
2035822
2035661
2035265
2034860
2034682
2034509
2034330
2034175
2034113
2034096
2034048
2033998
2033997
2033997
2034065
2034141
2034232
2034306
2034390
2034500
2034587
2034712
2034864
2034982
2035137
2035293
2035432
2035147
2034757
2034513
2034362
2034236
2034103
2034011
2034029
2034022
2033995
2034015
2034074
2034143
2034247
2034331
2034457
2034595
2034726
2034862
2035016
2035161
2035306
2035495
2035657
2035739
2035482
2035228
2035152
2035060
2035020
2034985
2035014
2035065
2035099
2035136
2035202
2035282
2035384
2035524
2035650
2035807
2035966
2036176
2036333
2036512
2036686
2036848
2037132
2037240
2037128
2036954
2036920
2036885
2036899
2036879
2036915
2037014
2037076
2037160
2037250
2037373
2037483
2037631
2037762
2037938
2038106
2038269
2038448
2038612
2038819
2038985
2039190
2039397
2039571
2039578
2039428
2039422
2039449
2039484
2039493
2039564
2039626
2039720
2039801
2039903
2039976
2040111
2040410
2040716
2040869
2041027
2041172
2041312
2041476
2041618
2041766
2041916
2042089
2042233
2042188
2042066
2042041
2042023
2042026
2042013
2042049
2042080
2042119
2042153
2042207
2042271
2042346
2042426
2042507
2042580
2042689
2042769
2042880
2042960
2043064
2043150
2043273
2043317
2043121
2042946
2042841
2042767
2042686
2042619
2042601
2042575
2042568
2042559
2042585
2042613
2042654
2042719
2042775
2042852
2042940
2043019
2043123
2043206
2043313
2043404
2043514
2043632
2043593
2043367
2043133
2042981
2042894
2042783
2042698
2042632
2042598
2042564
2042509
2042477
2042471
2042503
2042522
2042584
2042631
2042645
2042731
2042786
2042902
2042957
2043036
2043156
2043251
2043252
2042962
2042670
2042450
2042286
2042153
2041984
2041915
2041882
2041811
2041752
2041726
2041717
2041703
2041734
2041758
2041790
2041851
2041886
2041923
2042014
2042083
2042152
2042233
2042199
2041856
2041536
2041302
2041130
2040995
2040880
2040801
2040720
2040599
2040414
2040183
2040416
2040371
2040446
2040387
2040438
2040504
2040538
2040720
2040763
2040820
2040837
2040163
2039798
2039537
2039327
2039152
2038997
2038901
2038817
2038758
2038674
2038629
2038592
2038620
2038641
2038711
2038731
2038808
2038890
2038952
2039039
2039116
2039236
2039176
2038803
2038471
2038238
2038059
2037881
2037693
2037655
2037625
2037553
2037509
2037518
2037539
2037585
2037645
2037710
2037794
2037896
2038026
2038157
2038267
2038388
2038501
2038324
2038055
2037864
2037756
2037646
2037544
2037508
2037513
2037530
2037541
2037548
2037611
2037675
2037765
2037831
2037927
2038034
2038151
2038277
2038401
2038557
2038655
2038553
2038396
2038360
2038331
2038336
2038298
2038375
2038451
2038535
2038610
2038684
2038805
2038952
2039067
2039224
2039388
2039579
2039761
2039914
2040078
2040500
2040688
2040436
2040523
2040669
2040730
2040751
2040827
2040953
2041040
2041138
2041256
2041376
2041525
2041699
2041821
2041971
2042120
2042298
2042475
2042643
2042797
2042960
2043138
2043255
2043211
2043207
2043260
2043283
2043341
2043397
2043462
2043553
2043674
2043731
2043793
2043926
2044043
2044143
2044294
2044400
2044522
2044688
2044828
2044927
2045051
2045173
2045294
2045214
2045119
2045090
2045060
2045038
2044986
2044956
2044977
2044984
2044961
2044985
2044983
2044994
2045073
2045107
2045159
2045219
2045278
2045339
2045403
2045476
2045539
2045500
2045308
2045141
2045003
2044878
2044765
2044655
2044550
2044513
2044438
2044389
2044367
2044375
2044393
2044406
2044432
2044480
2044537
2044596
2044675
2044722
2044824
2044879
2044816
2044474
2044204
2044016
2043885
2043736
2043595
2043528
2043422
2043365
2043288
2043242
2043205
2043199
2043180
2043212
2043237
2043281
2043326
2043344
2043390
2043468
2043497
2043572
2043564
2043250
2042891
2042625
2042406
2042188
2041991
2041867
2041776
2041662
2041567
2041496
2041408
2041372
2041354
2041349
2041374
2041346
2041387
2041413
2041414
2041447
2041508
2041556
2041358
2040947
2040576
2039957
2039738
2039522
2039386
2039302
2039174
2039037
2038973
2038884
2038848
2038842
2038821
2038862
2038887
2038911
2038955
2039006
2039063
2039131
2039192
2038983
2038552
2038221
2037998
2037805
2037612
2037467
2037381
2037322
2037264
2037201
2037195
2037198
2037215
2037232
2037281
2037375
2037494
2037553
2037630
2037753
2037880
2037999
2038094
2037888
2037506
2037186
2037015
2036915
2036775
2036688
2036666
2036643
2036628
2036617
2036628
2036684
2036725
2036783
2036876
2036979
2037086
2037197
2037299
2037440
2037548
2037689
2037768
2037517
2037217
2037051
2036949
2036859
2036774
2036757
2036730
2036711
2036685
2036671
2036697
2036730
2036779
2036842
2036888
2036946
2037028
2037115
2037197
2037288
2037375
2037143
2036855
2036643
2036503
2036442
2036297
2036240
2036212
2036170
2036167
2036122
2036151
2036144
2036196
2036291
2036348
2036448
2036492
2036612
2036707
2036810
2036869
2036615
2036306
2036039
2035851
2035681
2035529
2035430
2035398
2035347
2035306
2035251
2035258
2035256
2035286
2035372
2035415
2035484
2035536
2035629
2035703
2035806
2035891
2035802
2035437
2035140
2034939
2034733
2034555
2034424
2034360
2034298
2034263
2034211
2034197
2034236
2034259
2034312
2034360
2034440
2034540
2034626
2034726
2034829
2034935
2034965
2034731
2034454
2034315
2034207
2034112
2034054
2034050
2034074
2034104
2034138
2034170
2034245
2034336
2034443
2034575
2034691
2034824
2035000
2035128
2035282
2035489
2035630
2035515
2035423
2035412
2035444
2035439
2035448
2035570
2035694
2035783
2035911
2036105
2036268
2036430
2036604
2036777
2036972
2037149
2037329
2037520
2037714
2037909
2038119
2038295
2038270
2038299
2038345
2038466
2038526
2038615
2038731
2038854
2038987
2039124
2039243
2039416
2039554
2039703
2039854
2040292
2040492
2040707
2040891
2041055
2041218
2041369
2041549
2041703
2041658
2041678
2041722
2041787
2041849
2041891
2041987
2042061
2042130
2042186
2042232
2042367
2042437
2042572
2042653
2042747
2042834
2042937
2043029
2043151
2043249
2043366
2043459
2043396
2043325
2043298
2043309
2043255
2043268
2043245
2043283
2043311
2043313
2043351
2043360
2043430
2043476
2043542
2043626
2043711
2043759
2043864
2043949
2044026
2044100
2044185
2044261
2044217
2044041
2043912
2043801
2043705
2043555
2043452
2043377
2043327
2043271
2043195
2043169
2043147
2043123
2043111
2043128
2043111
2043168
2043170
2043193
2043224
2043265
2043320
2043348
2043381
2043157
2042814
2042526
2042329
2042123
2041903
2041723
2041603
2041442
2041320
2041163
2041051
2040973
2040945
2040863
2040839
2040820
2040792
2040775
2040775
2040777
2040802
2040815
2040512
2039849
2039443
2039123
2038860
2038580
2038323
2038132
2038004
2037841
2037707
2037568
2037491
2037426
2037402
2037359
2037353
2037366
2037362
2037388
2037431
2037467
2037513
2037575
2037566
2037155
2036659
2036213
2035884
2035614
2035346
2035156
2035039
2034936
2034781
2034712
2034649
2034610
2034624
2034621
2034645
2034714
2034732
2034793
2034843
2034920
2034973
2035068
2035154
2034878
2034403
2034020
2033799
2033613
2033397
2033258
2033196
2033107
2033008
2032949
2032906
2032925
2032937
2032991
2033041
2033098
2033193
2033301
2033395
2033495
2033634
2033757
2033647
2033279
2032947
2032789
2032667
2032502
2032413
2032426
2032432
2032448
2032460
2032485
2032565
2032683
2032804
2032928
2033054
2033224
2033360
2033564
2033721
2033903
2034103
2034260
2034416
2034250
2034068
2033938
2033906
2033881
2033826
2033832
2033891
2033960
2034031
2034135
2034258
2034339
2034486
2034634
2034797
2034970
2035130
2035300
2035476
2035653
2035809
2036043
2036251
2036243
2036116
2035982
2035957
2036029
2036038
2036058
2036116
2036183
2036235
2036309
2036379
2036472
2036557
2036641
2036775
2036902
2037034
2037144
2037267
2037388
2037513
2037661
2037755
2037669
2037526
2037468
2037485
2037476
2037464
2037494
2037577
2037622
2037656
2037739
2037801
2037912
2038019
2038104
2038213
2038331
2038464
2038589
2038759
2038860
2038992
2039117
2039235
2039085
2038931
2038830
2038781
2038739
2038682
2038653
2038666
2038699
2038683
2038683
2038727
2038785
2038820
2038931
2038989
2039086
2039187
2039242
2039362
2039443
2039554
2039665
2039738
2039591
2039339
2039174
2039069
2038965
2038830
2038748
2038704
2038646
2038599
2038534
2038534
2038525
2038507
2038526
2038601
2038597
2038637
2038699
2038713
2038790
2038839
2038922
2038858
2038603
2038304
2038108
2037945
2037827
2037656
2037579
2037518
2037440
2037356
2037337
2037312
2037306
2037353
2037384
2037423
2037470
2037506
2037587
2037642
2037708
2037816
2037858
2037576
2037248
2036975
2036816
2036637
2036449
2036343
2036272
2036188
2036106
2036039
2036000
2036015
2036007
2036064
2036138
2036173
2036262
2036318
2036408
2036486
2036556
2036668
2036791
2036532
2036190
2035868
2035702
2035553
2035369
2035275
2035198
2035163
2035114
2035065
2035045
2035060
2035085
2035136
2035207
2035236
2035290
2035383
2035479
2035532
2035619
2035708
2035824
2035675
2035380
2035111
2034912
2034806
2034664
2034572
2034545
2034523
2034490
2034430
2034454
2034449
2034506
2034548
2034620
2034705
2034780
2034863
2034972
2035073
2035181
2035307
2035331
2035079
2034774
2034561
2034450
2034350
2034222
2034174
2034188
2034213
2034165
2034197
2034228
2034308
2034377
2034482
2034561
2034682
2034794
2034907
2035038
2035168
2035301
2035438
2035595
2035416
2035132
2034960
2034874
2034772
2034711
2034691
2034708
2034739
2034727
2034761
2034813
2034892
2034959
2035055
2035148
2035266
2035384
2035511
2035612
2035725
2035859
2036019
2036113
2035884
2035602
2035434
2035329
2035268
2035192
2035172
2035152
2035152
2035115
2035103
2035122
2035190
2035233
2035277
2035383
2035455
2035533
2035659
2035739
2035843
2035974
2035881
2035637
2035385
2035253
2035148
2035072
2034983
2035012
2035009
2034996
2034997
2035021
2035071
2035116
2035194
2035313
2035392
2035519
2035629
2035741
2035840
2036001
2036145
2036072
2035723
2035468
2035302
2035195
2035081
2034992
2034973
2034969
2034952
2034934
2034971
2035001
2035060
2035158
2035260
2035342
2035439
2035558
2035694
2035792
2035977
2036091
2035840
2035508
2035273
2035130
2035007
2034887
2034820
2034788
2034760
2034715
2034721
2034701
2034713
2034770
2034856
2034898
2034956
2035057
2035143
2035240
2035363
2035414
2035140
2034822
2034636
2034513
2034430
2034331
2034320
2034333
2034308
2034309
2034306
2034388
2034435
2034555
2034648
2034725
2034873
2034964
2035099
2035224
2035356
2035352
2035108
2034875
2034772
2034677
2034631
2034594
2034615
2034648
2034680
2034725
2034797
2034886
2034989
2035108
2035217
2035366
2035492
2035660
2035816
2035963
2036163
2036326
2036173
2035980
2035860
2035861
2035866
2035870
2035919
2036030
2036087
2036190
2036269
2036364
2036468
2036607
2036738
2036883
2037023
2037169
2037340
2037486
2037626
2037793
2037975
2037948
2037850
2037771
2037773
2037798
2037830
2037850
2037930
2037999
2038059
2038106
2038162
2038266
2038358
2038467
2038598
2038708
2038832
2038954
2039082
2039215
2039352
2039496
2039383
2039259
2039218
2039230
2039206
2039205
2039266
2039306
2039343
2039380
2039432
2039508
2039552
2039656
2039746
2039859
2039951
2040060
2040148
2040510
2040747
2040849
2040984
2040928
2040734
2040605
2040497
2040407
2040185
2040079
2040069
2040079
2040068
2040063
2040077
2040098
2040337
2040496
2040551
2040709
2040782
2040872
2040963
2041053
2041137
2041241
2041344
2041318
2041093
2040827
2040509
2040132
2040004
2039875
2039778
2039721
2039628
2039542
2039489
2039431
2039438
2039446
2039475
2039511
2039516
2039587
2039617
2039673
2039718
2039784
2039849
2039932
2039699
2039255
2038882
2038641
2038418
2038168
2038027
2037881
2037771
2037573
2037472
2037351
2037259
2037204
2037169
2037172
2037129
2037107
2037121
2037133
2037122
2037179
2037211
2037117
2036674
2036118
2035647
2035355
2035106
2034868
2034702
2034560
2034394
2034250
2034118
2034043
2034004
2033963
2033976
2033994
2034013
2034053
2034078
2034115
2034191
2034269
2034314
2033921
2033294
2032831
2032549
2032308
2032054
2031858
2031801
2031765
2031668
2031631
2031594
2031605
2031619
2031607
2031641
2031660
2031721
2031752
2031803
2031816
2031895
2031994
2032113
2031820
2031543
2031105
2030845
2030677
2030494
2030356
2030305
2030251
2030191
2030185
2030160
2030235
2030296
2030371
2030477
2030586
2030683
2030807
2030949
2031103
2031261
2031390
2031543
2031271
2030845
2030557
2030400
2030319
2030213
2030191
2030211
2030214
2030178
2030212
2030244
2030295
2030396
2030515
2030632
2030767
2030898
2031032
2031187
2031338
2031480
2031621
2031594
2031350
2031100
2030983
2030924
2030851
2030861
2030927
2030976
2031027
2031072
2031168
2031267
2031418
2031557
2031637
2031711
2031801
2031910
2032108
2032318
2032506
2032694
2032893
2032945
2032744
2032643
2032616
2032636
2032611
2032668
2032747
2032866
2032927
2032998
2033129
2033263
2033382
2033598
2033777
2033941
2034138
2034288
2034482
2034667
2034869
2035073
2035263
2035363
2035259
2035142
2035106
2035139
2035159
2035171
2035245
2035326
2035382
2035438
2035545
2035615
2035737
2035849
2035976
2036168
2036299
2036440
2036589
2036725
2036868
2037029
2037185
2037300
2037186
2037024
2036910
2036892
2036867
2036829
2036848
2036886
2036879
2036904
2036898
2036953
2037019
2037049
2037122
2037212
2037303
2037398
2037479
2037569
2037678
2037819
2037832
2037621
2037381
2037221
2037126
2036955
2036859
2036785
2036782
2036729
2036701
2036683
2036678
2036731
2036767
2036811
2036889
2036967
2037061
2037137
2037242
2037331
2037450
2037599
2037641
2037336
2036995
2036743
2036584
2036402
2036248
2036089
2036055
2035969
2035854
2035811
2035792
2035779
2035784
2035814
2035894
2035982
2036060
2036139
2036244
2036320
2036395
2036520
2036600
2036337
2035837
2035482
2035267
2035070
2034894
2034760
2034665
2034583
2034493
2034426
2034386
2034339
2034368
2034398
2034463
2034504
2034545
2034616
2034659
2034746
2034828
2034809
2034391
2033953
2033703
2033529
2033341
2033189
2033118
2033077
2032999
2032966
2032936
2032982
2033019
2033063
2033143
2033243
2033314
2033441
2033555
2033675
2033799
2033924
2033963
2033612
2033268
2033121
2032995
2032862
2032773
2032751
2032774
2032790
2032782
2032859
2032919
2033019
2033116
2033276
2033407
2033540
2033698
2033848
2034011
2034181
2034377
2034533
2034375
2034163
2034100
2034057
2034011
2033977
2034029
2034097
2034146
2034218
2034282
2034386
2034487
2034636
2034769
2034895
2035051
2035188
2035350
2035513
2035668
2035844
2035991
2035890
2035808
2035767
2035806
2035816
2035832
2035921
2036042
2036144
2036241
2036347
2036442
2036603
2036723
2036864
2036975
2037141
2037280
2037441
2037609
2037765
2037960
2037966
2037900
2037931
2037919
2037971
2038001
2038047
2038138
2038219
2038321
2038408
2038495
2038613
2038711
2038852
2039007
2039150
2039285
2039414
2039596
2039761
2039894
2040045
2040427
2040393
2040133
2040119
2040190
2040406
2040418
2040471
2040650
2040738
2040786
2040813
2040891
2040971
2041042
2041146
2041257
2041317
2041449
2041528
2041646
2041730
2041842
2041961
2042052
2042168
2042082
2041946
2041858
2041785
2041718
2041669
2041632
2041625
2041592
2041561
2041543
2041521
2041539
2041568
2041621
2041651
2041696
2041747
2041827
2041893
2041946
2042021
2042124
2042180
2042040
2041797
2041599
2041458
2041336
2041185
2041054
2040994
2040946
2040877
2040794
2040782
2040772
2040776
2040772
2040804
2040862
2040893
2040961
2041025
2041095
2041153
2041249
2041317
2041417
2041464
2041115
2040804
2040465
2040089
2039884
2039730
2039619
2039546
2039481
2039412
2039374
2039328
2039327
2039330
2039353
2039392
2039423
2039462
2039543
2039605
2039648
2039744
2039826
2039912
2040008
2039930
2039538
2039195
2038964
2038785
2038581
2038416
2038316
2038226
2038133
2038041
2038018
2037969
2037936
2037940
2037992
2037991
2038049
2038099
2038151
2038226
2038282
2038360
2038418
2038500
2038560
2038355
2037912
2037550
2037306
2037124
2036908
2036802
2036702
2036581
2036485
2036377
2036311
2036277
2036271
2036265
2036300
2036319
2036362
2036393
2036467
2036508
2036554
2036644
2036736
2036708
2036307
2035799
2035507
2035248
2035066
2034902
2034828
2034735
2034629
2034572
2034513
2034501
2034504
2034527
2034583
2034632
2034698
2034783
2034870
2034958
2035052
2035154
2035275
2035425
2035510
2035226
2034800
2034471
2034267
2034106
2033946
2033830
2033790
2033726
2033673
2033617
2033589
2033623
2033665
2033688
2033766
2033880
2033955
2034041
2034135
2034248
2034356
2034491
2034617
2034760
2034857
2034524
2034143
2033855
2033732
2033578
2033457
2033372
2033349
2033289
2033245
2033227
2033244
2033273
2033333
2033389
2033463
2033552
2033654
2033741
2033845
2033971
2034078
2034220
2034344
2034457
2034399
2034049
2033786
2033617
2033528
2033417
2033353
2033336
2033313
2033259
2033241
2033242
2033296
2033324
2033411
2033490
2033571
2033666
2033754
2033881
2034000
2034132
2034248
2034402
2034222
2033929
2033708
2033598
2033530
2033447
2033387
2033390
2033416
2033419
2033418
2033490
2033527
2033619
2033729
2033806
2033947
2034071
2034196
2034316
2034458
2034640
2034797
2034965
2035112
2034958
2034697
2034534
2034441
2034414
2034332
2034301
2034315
2034312
2034349
2034334
2034391
2034442
2034539
2034608
2034702
2034826
2034937
2035058
2035186
2035294
2035458
2035622
2035750
2035918
2035813
2035561
2035331
2035192
2035124
2035049
2034972
2034969
2034978
2034921
2034932
2034966
2034985
2035031
2035096
2035167
2035218
2035318
2035381
2035487
2035588
2035655
2035783
2035879
2035694
2035390
2035137
2035019
2034886
2034761
2034676
2034635
2034599
2034527
2034493
2034507
2034512
2034541
2034582
2034646
2034713
2034792
2034885
2034949
2035053
2035129
2035243
2035043
2034685
2034371
2034222
2034055
2033888
2033824
2033787
2033730
2033725
2033704
2033680
2033742
2033815
2033903
2033975
2034097
2034178
2034273
2034409
2034507
2034693
2034815
2034922
2034673
2034347
2034133
2034018
2033877
2033731
2033709
2033685
2033694
2033694
2033717
2033740
2033817
2033875
2033973
2034082
2034206
2034360
2034477
2034636
2034741
2034892
2035045
2035195
2035191
2034909
2034691
2034591
2034521
2034450
2034427
2034428
2034468
2034491
2034524
2034571
2034668
2034763
2034883
2034997
2035122
2035250
2035365
2035514
2035635
2035779
2035974
2036095
2035930
2035736
2035655
2035660
2035616
2035598
2035662
2035722
2035801
2035863
2035979
2036112
2036264
2036370
2036539
2036666
2036828
2037015
2037180
2037343
2037521
2037703
2037860
2037955
2037855
2037789
2037771
2037810
2037817
2037820
2037919
2038000
2038071
2038125
2038222
2038344
2038452
2038596
2038713
2038849
2038979
2039130
2039297
2039427
2039568
2039738
2039867
2039970
2039860
2039742
2039718
2039727
2039698
2039676
2039710
2039741
2039768
2039780
2039853
2039868
2039935
2039997
2040095
2040126
2040364
2040578
2040733
2040836
2040906
2041002
2041087
2040971
2040732
2040352
2040123
2040023
2039941
2039860
2039875
2039819
2039804
2039766
2039775
2039788
2039825
2039877
2039961
2039984
2040063
2040133
2040484
2040640
2040743
2040812
2040237
2039959
2039799
2039658
2039557
2039428
2039390
2039361
2039355
2039332
2039325
2039354
2039382
2039455
2039517
2039608
2039710
2039794
2039907
2040014
2040278
2040476
2040717
2040728
2040498
2039965
2039876
2039807
2039767
2039698
2039731
2039750
2039783
2039795
2039835
2039906
2040002
2040098
2040254
2040671
2040771
2040901
2041019
2041158
2041269
2041382
2041551
2041512
2041333
2041251
2041188
2041201
2041206
2041201
2041228
2041272
2041306
2041338
2041396
2041453
2041529
2041641
2041720
2041812
2041926
2042009
2042131
2042215
2042365
2042479
2042338
2042223
2042155
2042147
2042125
2042093
2042124
2042194
2042217
2042255
2042311
2042377
2042437
2042525
2042608
2042705
2042810
2042921
2043026
2043142
2043282
2043364
2043516
2043547
2043413
2043300
2043226
2043246
2043201
2043182
2043228
2043231
2043250
2043265
2043276
2043342
2043424
2043462
2043537
2043650
2043733
2043806
2043913
2044000
2044080
2044187
2044296
2044378
2044174
2044025
2043949
2043907
2043836
2043775
2043713
2043684
2043644
2043603
2043582
2043558
2043557
2043571
2043601
2043602
2043648
2043679
2043713
2043751
2043837
2043860
2043908
2043848
2043564
2043359
2043196
2043015
2042893
2042735
2042675
2042577
2042487
2042384
2042338
2042273
2042255
2042276
2042263
2042275
2042294
2042306
2042352
2042371
2042408
2042454
2042484
2042229
2041870
2041579
2041364
2041166
2040950
2040779
2040670
2040428
2040086
2039984
2039885
2039848
2039800
2039805
2039794
2039807
2039809
2039824
2039883
2039903
2040014
2040033
2040092
2039865
2039451
2039089
2038806
2038609
2038373
2038186
2038064
2037974
2037850
2037706
2037641
2037584
2037541
2037556
2037544
2037546
2037585
2037613
2037660
2037704
2037763
2037800
2037857
2037904
2037592
2037131
2036794
2036536
2036364
2036170
2036034
2035914
2035812
2035689
2035612
2035543
2035505
2035517
2035525
2035562
2035587
2035598
2035637
2035677
2035721
2035805
2035872
2035556
2035084
2034763
2034544
2034382
2034224
2034103
2034042
2033985
2033929
2033857
2033853
2033847
2033894
2033996
2034045
2034137
2034197
2034302
2034389
2034488
2034644
2034749
2034894
2034704
2034252
2034012
2033842
2033728
2033603
2033530
2033480
2033478
2033456
2033415
2033449
2033467
2033546
2033603
2033684
2033771
2033883
2033989
2034094
2034212
2034380
2034482
2034620
2034605
2034299
2034010
2033838
2033764
2033682
2033572
2033568
2033587
2033547
2033525
2033512
2033577
2033622
2033710
2033798
2033901
2034018
2034108
2034189
2034306
2034435
2034550
2034512
2034249
2034045
2033936
2033857
2033805
2033765
2033776
2033812
2033819
2033828
2033882
2033938
2034010
2034128
2034216
2034341
2034444
2034581
2034699
2034825
2034943
2035096
2035249
2035248
2035059
2034873
2034819
2034787
2034721
2034688
2034695
2034753
2034768
2034783
2034863
2034905
2034983
2035072
2035172
2035266
2035377
2035461
2035596
2035745
2035870
2036024
2036178
2036307
2036253
2036008
2035826
2035766
2035698
2035629
2035577
2035606
2035621
2035617
2035628
2035618
2035665
2035759
2035794
2035909
2035993
2036072
2036182
2036286
2036355
2036488
2036612
2036677
2036640
2036394
2036188
2036043
2035958
2035851
2035763
2035752
2035733
2035646
2035641
2035606
2035606
2035610
2035664
2035689
2035731
2035787
2035845
2035903
2036034
2036145
2036228
2036274
2035968
2035618
2035412
2035301
2035147
2034976
2034885
2034835
2034806
2034726
2034707
2034692
2034704
2034742
2034783
2034853
2034932
2034989
2035070
2035145
2035234
2035357
2035467
2035553
2035299
2034985
2034736
2034620
2034443
2034308
2034245
2034217
2034177
2034123
2034116
2034113
2034131
2034173
2034223
2034284
2034416
2034473
2034573
2034669
2034789
2034914
2035039
2035166
2035106
2034858
2034629
2034511
2034424
2034371
2034349
2034367
2034345
2034391
2034426
2034460
2034512
2034590
2034692
2034745
2034877
2034969
2035111
2035240
2035356
2035491
2035633
2035603
2035444
2035273
2035243
2035240
2035205
2035202
2035218
2035270
2035330
2035369
2035437
2035526
2035619
2035739
2035853
2036011
2036154
2036298
2036420
2036595
2036704
2036899
2037040
2036976
2036838
2036761
2036769
2036780
2036752
2036752
2036795
2036869
2036905
2036951
2037023
2037100
2037190
2037308
2037401
2037528
2037643
2037769
2037915
2038011
2038118
2038258
2038391
2038382
2038228
2038184
2038120
2038121
2038092
2038067
2038084
2038095
2038124
2038139
2038169
2038207
2038287
2038353
2038412
2038490
2038570
2038666
2038714
2038805
2038912
2039015
2039009
2038846
2038660
2038595
2038540
2038453
2038392
2038370
2038368
2038327
2038297
2038308
2038303
2038316
2038360
2038367
2038411
2038474
2038529
2038568
2038638
2038723
2038791
2038745
2038505
2038294
2038156
2037998
2037860
2037761
2037689
2037667
2037593
2037549
2037516
2037509
2037516
2037557
2037600
2037638
2037679
2037725
2037796
2037863
2037938
2038009
2038052
2037851
2037573
2037357
2037187
2037066
2036931
2036828
2036755
2036723
2036671
2036618
2036588
2036604
2036636
2036655
2036705
2036756
2036804
2036865
2036926
2037012
2037116
2037219
2037241
2036973
2036669
2036512
2036366
2036211
2036093
2036027
2035956
2035908
2035876
2035850
2035857
2035891
2035934
2036000
2036066
2036147
2036210
2036286
2036343
2036451
2036535
2036609
2036431
2036162
2036004
2035865
2035792
2035698
2035634
2035661
2035673
2035620
2035642
2035680
2035725
2035768
2035842
2035926
2036081
2036167
2036271
2036369
2036465
2036399
2036199
2036014
2035899
2035840
2035769
2035763
2035777
2035758
2035804
2035814
2035826
2035874
2035939
2036077
2036295
2036495
2036711
2036855
2036956
2037051
2037138
2037173
2037019
2036895
2036837
2036768
2036692
2036646
2036644
2036678
2036736
2036769
2036796
2036892
2036953
2037020
2037093
2037157
2037285
2037366
2037468
2037599
2037732
2037756
2037638
2037560
2037543
2037520
2037495
2037498
2037532
2037596
2037661
2037727
2037783
2037884
2037971
2038083
2038208
2038347
2038501
2038598
2038738
2038847
2039019
2039124
2039069
2039056
2039113
2039153
2039193
2039238
2039339
2039393
2039464
2039554
2039626
2039702
2039785
2039885
2039994
2040097
2040379
2040532
2040785
2040875
2040995
2040947
2040895
2040937
2040965
2041007
2041032
2041094
2041168
2041212
2041277
2041320
2041385
2041465
2041558
2041642
2041725
2041791
2041880
2041993
2042115
2042189
2042152
2042145
2042135
2042223
2042208
2042272
2042332
2042390
2042447
2042483
2042575
2042660
2042740
2042839
2042914
2043024
2043098
2043218
2043315
2043408
2043503
2043550
2043490
2043461
2043506
2043525
2043540
2043578
2043613
2043656
2043708
2043744
2043792
2043842
2043902
2044007
2044065
2044127
2044216
2044277
2044375
2044464
2044492
2044332
2044287
2044247
2044229
2044142
2044136
2044137
2044109
2044064
2044023
2044043
2044060
2044083
2044120
2044111
2044161
2044192
2044207
2044229
2044100
2043926
2043798
2043669
2043593
2043464
2043392
2043353
2043286
2043218
2043179
2043134
2043144
2043122
2043120
2043131
2043129
2043136
2043148
2042950
2042685
2042424
2042276
2042080
2041921
2041815
2041726
2041657
2041571
2041482
2041458
2041455
2041428
2041431
2041462
2041462
2041514
2041541
2041382
2041076
2040801
2040626
2040125
2039937
2039793
2039758
2039705
2039644
2039565
2039563
2039522
2039543
2039570
2039618
2039658
2039714
2039766
2039834
2039845
2039580
2039281
2039176
2039062
2038946
2038878
2038840
2038840
2038829
2038843
2038843
2038851
2038917
2038960
2039044
2039118
2039204
2039264
2039355
2039457
2039420
2039239
2039109
2039059
2039017
2038977
2038973
2038991
2039012
2039033
2039017
2039094
2039143
2039215
2039263
2039368
2039459
2039533
2039633
2039756
2039766
2039636
2039562
2039562
2039581
2039556
2039615
2039645
2039700
2039718
2039773
2039836
2039895
2039965
2040059
2040327
2040461
2040627
2040766
2040886
2040933
2040824
2040776
2040762
2040778
2040790
2040766
2040800
2040842
2040859
2040905
2040932
2040990
2041043
2041127
2041175
2041280
2041370
2041428
2041529
2041608
2041689
2041805
2041731
2041597
2041551
2041556
2041504
2041465
2041440
2041443
2041455
2041438
2041441
2041464
2041496
2041513
2041557
2041589
2041649
2041719
2041750
2041806
2041889
2041949
2041991
2041877
2041740
2041564
2041468
2041361
2041245
2041185
2041084
2041025
2040984
2040919
2040865
2040816
2040836
2040782
2040755
2040786
2040834
2040810
2040828
2040854
2040905
2040908
2040842
2040238
2039874
2039617
2039459
2039286
2039098
2038978
2038838
2038696
2038580
2038470
2038346
2038300
2038272
2038236
2038213
2038166
2038180
2038178
2038209
2038209
2038200
2037886
2037409
2036989
2036721
2036419
2036137
2035907
2035737
2035563
2035419
2035244
2035130
2035015
2034967
2034951
2034908
2034875
2034860
2034850
2034856
2034862
2034886
2034879
2034432
2033821
2033340
2032995
2032684
2032360
2032109
2031945
2031782
2031721
2031606
2031576
2031494
2031408
2031378
2031355
2031339
2031344
2031349
2031353
2031380
2031405
2031454
2031267
2030630
2029983
2029521
2029170
2028739
2028482
2028284
2028106
2027875
2027701
2027539
2027392
2027278
2027253
2027249
2027227
2027210
2027210
2027232
2027264
2027173
2026558
2025869
2025360
2025015
2024723
2024425
2024279
2024159
2024003
2023863
2023735
2023669
2023616
2023619
2023638
2023694
2023774
2023817
2023877
2023960
2023686
2022774
2022201
2021762
2021500
2021253
2021092
2020993
2020983
2020900
2020853
2020859
2020904
2020961
2021070
2021188
2021311
2021435
2021571
2021730
2021865
2021572
2021013
2020623
2020440
2020283
2020134
2020081
2020084
2020155
2020177
2020221
2020305
2020426
2020624
2020762
2020935
2021130
2021305
2021523
2021722
2021918
2021892
2021419
2021152
2021049
2020987
2020919
2020934
2021029
2021085
2021149
2021255
2021346
2021511
2021676
2021876
2022038
2022241
2022400
2022643
2022854
2022948
2022705
2022477
2022390
2022384
2022397
2022422
2022566
2022670
2022810
2022959
2023364
2023516
2023749
2023972
2024181
2024415
2024633
2024854
2025084
2025190
2024997
2024921
2024936
2024975
2025025
2025068
2025240
2025414
2025555
2025718
2025883
2026107
2026302
2026519
2026746
2026976
2027190
2027452
2027724
2027916
2027842
2027726
2027718
2027784
2027829
2027860
2028017
2028186
2028326
2028463
2028616
2028790
2028989
2029148
2029382
2029574
2029792
2030003
2030204
2030461
2030543
2030449
2030381
2030380
2030438
2030433
2030496
2030622
2030715
2030791
2030891
2031011
2031143
2031320
2031445
2031590
2031618
2031739
2031807
2031923
2032064
2031951
2031813
2031807
2031786
2031783
2031788
2031825
2031896
2031951
2031983
2032102
2032174
2032276
2032423
2032557
2032674
2032799
2032999
2033145
2033059
2032910
2032814
2032796
2032759
2032741
2032774
2032836
2032888
2032970
2033031
2033121
2033241
2033376
2033500
2033652
2033769
2033892
2034056
2034207
2034372
2034275
2034152
2034086
2034095
2034097
2034093
2034135
2034209
2034269
2034321
2034411
2034488
2034617
2034720
2034873
2035006
2035121
2035306
2035446
2035596
2035745
2035818
2035756
2035687
2035671
2035718
2035723
2035760
2035823
2035945
2036067
2036124
2036209
2036326
2036436
2036515
2036621
2036740
2036873
2036995
2037093
2037227
2037341
2037441
2037373
2037268
2037228
2037212
2037217
2037230
2037242
2037272
2037302
2037311
2037374
2037434
2037508
2037577
2037631
2037720
2037819
2037908
2037999
2038095
2038167
2038032
2037918
2037818
2037786
2037728
2037686
2037672
2037665
2037678
2037701
2037652
2037723
2037746
2037791
2037836
2037911
2037990
2038055
2038137
2038211
2038326
2038393
2038486
2038338
2038133
2037975
2037862
2037760
2037690
2037575
2037531
2037519
2037510
2037446
2037459
2037454
2037479
2037536
2037571
2037630
2037678
2037748
2037828
2037892
2037977
2038061
2038108
2037907
2037640
2037374
2037243
2037077
2036944
2036860
2036775
2036697
2036608
2036570
2036488
2036468
2036478
2036481
2036471
2036515
2036555
2036589
2036608
2036672
2036747
2036700
2036349
2035934
2035668
2035503
2035320
2035136
2035075
2034990
2034890
2034820
2034762
2034742
2034739
2034773
2034812
2034849
2034885
2034939
2034989
2035060
2035133
2035246
2035324
2035013
2034646
2034338
2034178
2034032
2033888
2033787
2033749
2033695
2033670
2033625
2033633
2033651
2033695
2033791
2033847
2033921
2033995
2034111
2034197
2034301
2034417
2034561
2034678
2034442
2034114
2033876
2033771
2033694
2033634
2033595
2033595
2033602
2033605
2033622
2033689
2033739
2033784
2033911
2034003
2034138
2034227
2034365
2034499
2034609
2034749
2034865
2035000
2034864
2034570
2034430
2034350
2034338
2034306
2034356
2034369
2034415
2034428
2034442
2034528
2034608
2034660
2034792
2034886
2034985
2035116
2035218
2035354
2035479
2035584
2035513
2035291
2035151
2035105
2035072
2035035
2035054
2035068
2035081
2035125
2035189
2035233
2035297
2035396
2035476
2035593
2035695
2035826
2035973
2036147
2036245
2036372
2036511
2036329
2036192
2036102
2036071
2036042
2035998
2035987
2036066
2036102
2036137
2036178
2036244
2036311
2036396
2036461
2036584
2036681
2036811
2036896
2036986
2037125
2037232
2037389
2037341
2037166
2037042
2036974
2036956
2036948
2036891
2036905
2036937
2036944
2036959
2036973
2036999
2037074
2037130
2037212
2037272
2037355
2037455
2037564
2037634
2037744
2037795
2037607
2037432
2037327
2037262
2037206
2037150
2037146
2037128
2037128
2037145
2037148
2037176
2037216
2037275
2037316
2037398
2037450
2037569
2037632
2037720
2037811
2037934
2037995
2037813
2037582
2037463
2037373
2037296
2037211
2037173
2037195
2037174
2037166
2037183
2037206
2037241
2037310
2037362
2037419
2037505
2037609
2037698
2037786
2037893
2037992
2038105
2038091
2037853
2037646
2037525
2037461
2037383
2037307
2037311
2037298
2037279
2037245
2037236
2037246
2037284
2037346
2037402
2037435
2037530
2037580
2037602
2037718
2037808
2037889
2037915
2037655
2037385
2037205
2037098
2036978
2036908
2036894
2036866
2036836
2036836
2036839
2036874
2036903
2036983
2037045
2037120
2037210
2037315
2037406
2037539
2037642
2037769
2037882
2037782
2037512
2037294
2037139
2037043
2036942
2036837
2036824
2036760
2036745
2036728
2036706
2036735
2036754
2036825
2036872
2036951
2037032
2037129
2037243
2037334
2037447
2037546
2037633
2037406
2037059
2036835
2036693
2036612
2036474
2036397
2036387
2036336
2036315
2036272
2036273
2036318
2036365
2036403
2036477
2036550
2036623
2036671
2036776
2036843
2036937
2037040
2036847
2036490
2036244
2036027
2035861
2035744
2035673
2035597
2035602
2035542
2035500
2035479
2035482
2035550
2035619
2035673
2035725
2035827
2035912
2036057
2036167
2036258
2036294
2036030
2035626
2035366
2035242
2035086
2034972
2034927
2034872
2034834
2034819
2034847
2034857
2034877
2034948
2035018
2035114
2035197
2035300
2035402
2035520
2035637
2035769
2035887
2035918
2035632
2035309
2035135
2035011
2034932
2034816
2034810
2034833
2034818
2034784
2034836
2034874
2034917
2034993
2035115
2035207
2035315
2035445
2035560
2035704
2035820
2035979
2036158
2035992
2035679
2035482
2035350
2035284
2035254
2035212
2035217
2035215
2035211
2035205
2035248
2035293
2035352
2035431
2035516
2035653
2035724
2035835
2035928
2036099
2036200
2036089
2035765
2035536
2035428
2035354
2035283
2035232
2035257
2035261
2035271
2035266
2035319
2035355
2035422
2035514
2035610
2035713
2035815
2035923
2036073
2036200
2036306
2036348
2036078
2035792
2035609
2035548
2035463
2035390
2035369
2035383
2035388
2035389
2035434
2035467
2035545
2035595
2035700
2035806
2035919
2036069
2036171
2036288
2036389
2036478
2036259
2035925
2035742
2035646
2035549
2035483
2035436
2035461
2035478
2035466
2035465
2035507
2035559
2035624
2035714
2035820
2035895
2036007
2036103
2036180
2036288
2036361
2036189
2035848
2035684
2035555
2035489
2035418
2035424
2035407
2035382
2035367
2035407
2035429
2035478
2035546
2035604
2035708
2035775
2035882
2035994
2036141
2036222
2036095
2035794
2035664
2035607
2035544
2035483
2035439
2035489
2035514
2035542
2035558
2035619
2035715
2035819
2035903
2036086
2036196
2036335
2036472
2036634
2036772
2036918
2036890
2036784
2036721
2036708
2036726
2036735
2036768
2036847
2036941
2037025
2037106
2037174
2037307
2037428
2037556
2037713
2037843
2038010
2038118
2038276
2038441
2038593
2038759
2038774
2038714
2038719
2038752
2038809
2038845
2038887
