2.066459000000000000e+06
2.065564000000000000e+06
2.066021000000000000e+06
2.068425000000000000e+06
2.070284000000000000e+06
2.072751000000000000e+06
2.074129000000000000e+06
2.074068000000000000e+06
2.073099000000000000e+06
2.073499000000000000e+06
2.073777000000000000e+06
2.073266000000000000e+06
2.072803000000000000e+06
2.072810000000000000e+06
2.073372000000000000e+06
2.073925000000000000e+06
2.074450000000000000e+06
2.075139000000000000e+06
2.075617000000000000e+06
2.075937000000000000e+06
2.076470000000000000e+06
2.077101000000000000e+06
2.077304000000000000e+06
2.077496000000000000e+06
2.077575000000000000e+06
2.077540000000000000e+06
2.077340000000000000e+06
2.076689000000000000e+06
2.075709000000000000e+06
2.075202000000000000e+06
2.074469000000000000e+06
2.074361000000000000e+06
2.073858000000000000e+06
2.074043000000000000e+06
2.074891000000000000e+06
2.075008000000000000e+06
2.075330000000000000e+06
2.075913000000000000e+06
2.075937000000000000e+06
2.076548000000000000e+06
2.077080000000000000e+06
2.077389000000000000e+06
2.077385000000000000e+06
2.077386000000000000e+06
2.077032000000000000e+06
2.076894000000000000e+06
2.076750000000000000e+06
2.075944000000000000e+06
2.074943000000000000e+06
2.073125000000000000e+06
2.071138000000000000e+06
2.068973000000000000e+06
2.066631000000000000e+06
2.065212000000000000e+06
2.064917000000000000e+06
2.065386000000000000e+06
2.066912000000000000e+06
2.067554000000000000e+06
2.068000000000000000e+06
2.068638000000000000e+06
2.068731000000000000e+06
2.069166000000000000e+06
2.069538000000000000e+06
2.069687000000000000e+06
2.069775000000000000e+06
2.069748000000000000e+06
2.069714000000000000e+06
2.069872000000000000e+06
2.070119000000000000e+06
2.070317000000000000e+06
2.070503000000000000e+06
2.070793000000000000e+06
2.071435000000000000e+06
2.071955000000000000e+06
2.072243000000000000e+06
2.072312000000000000e+06
2.072375000000000000e+06
2.072532000000000000e+06
2.073440000000000000e+06
2.074698000000000000e+06
2.075785000000000000e+06
2.077490000000000000e+06
2.078744000000000000e+06
2.079864000000000000e+06
2.081200000000000000e+06
2.082429000000000000e+06
2.083444000000000000e+06
2.084227000000000000e+06
2.084848000000000000e+06
2.085021000000000000e+06
2.084930000000000000e+06
2.084577000000000000e+06
2.084326000000000000e+06
2.084226000000000000e+06
2.084219000000000000e+06
2.084306000000000000e+06
2.084419000000000000e+06
2.084515000000000000e+06
2.084624000000000000e+06
2.084801000000000000e+06
2.084944000000000000e+06
2.085027000000000000e+06
2.085177000000000000e+06
2.085259000000000000e+06
2.085447000000000000e+06
2.085521000000000000e+06
2.085217000000000000e+06
2.085039000000000000e+06
2.084865000000000000e+06
2.084595000000000000e+06
2.084382000000000000e+06
2.084342000000000000e+06
2.084370000000000000e+06
2.084440000000000000e+06
2.084492000000000000e+06
2.084543000000000000e+06
2.084638000000000000e+06
2.084688000000000000e+06
2.084838000000000000e+06
2.084928000000000000e+06
2.085011000000000000e+06
2.085083000000000000e+06
2.085032000000000000e+06
2.084832000000000000e+06
2.084653000000000000e+06
2.084439000000000000e+06
2.084346000000000000e+06
2.084419000000000000e+06
2.084551000000000000e+06
2.084776000000000000e+06
2.084965000000000000e+06
2.084996000000000000e+06
2.085036000000000000e+06
2.085159000000000000e+06
2.085277000000000000e+06
2.085373000000000000e+06
2.085513000000000000e+06
2.085599000000000000e+06
2.085339000000000000e+06
2.085119000000000000e+06
2.084976000000000000e+06
2.084871000000000000e+06
2.084818000000000000e+06
2.084871000000000000e+06
2.084937000000000000e+06
2.084963000000000000e+06
2.085003000000000000e+06
2.085141000000000000e+06
2.085198000000000000e+06
2.085383000000000000e+06
2.085585000000000000e+06
2.085829000000000000e+06
2.086068000000000000e+06
2.086136000000000000e+06
2.085846000000000000e+06
2.085465000000000000e+06
2.085171000000000000e+06
2.084997000000000000e+06
2.084922000000000000e+06
2.084849000000000000e+06
2.084813000000000000e+06
2.084765000000000000e+06
2.084721000000000000e+06
2.084707000000000000e+06
2.084698000000000000e+06
2.084752000000000000e+06
2.084727000000000000e+06
2.084715000000000000e+06
2.084692000000000000e+06
2.084499000000000000e+06
2.083921000000000000e+06
2.083267000000000000e+06
2.082645000000000000e+06
2.082186000000000000e+06
2.081848000000000000e+06
2.081626000000000000e+06
2.081510000000000000e+06
2.081380000000000000e+06
2.081221000000000000e+06
2.081119000000000000e+06
2.081089000000000000e+06
2.081066000000000000e+06
2.081131000000000000e+06
2.081252000000000000e+06
2.081347000000000000e+06
2.081089000000000000e+06
2.080269000000000000e+06
2.079349000000000000e+06
2.078562000000000000e+06
2.077830000000000000e+06
2.077939000000000000e+06
2.079853000000000000e+06
2.081109000000000000e+06
2.081581000000000000e+06
2.082102000000000000e+06
2.082731000000000000e+06
2.083203000000000000e+06
2.083569000000000000e+06
2.083803000000000000e+06
2.083886000000000000e+06
2.083911000000000000e+06
2.083682000000000000e+06
2.083381000000000000e+06
2.083050000000000000e+06
2.082832000000000000e+06
2.082661000000000000e+06
2.082679000000000000e+06
2.082794000000000000e+06
2.082859000000000000e+06
2.082922000000000000e+06
2.083059000000000000e+06
2.083140000000000000e+06
2.083242000000000000e+06
2.083327000000000000e+06
2.083393000000000000e+06
2.083466000000000000e+06
2.083509000000000000e+06
2.083130000000000000e+06
2.082525000000000000e+06
2.081962000000000000e+06
2.081440000000000000e+06
2.081006000000000000e+06
2.080847000000000000e+06
2.080823000000000000e+06
2.080833000000000000e+06
2.080845000000000000e+06
2.080851000000000000e+06
2.080885000000000000e+06
2.080951000000000000e+06
2.081060000000000000e+06
2.081143000000000000e+06
2.081209000000000000e+06
2.081219000000000000e+06
2.080786000000000000e+06
2.080000000000000000e+06
2.079248000000000000e+06
2.078671000000000000e+06
2.078201000000000000e+06
2.077987000000000000e+06
2.077940000000000000e+06
2.077994000000000000e+06
2.078037000000000000e+06
2.078170000000000000e+06
2.078298000000000000e+06
2.078508000000000000e+06
2.078749000000000000e+06
2.079037000000000000e+06
2.079297000000000000e+06
2.079528000000000000e+06
2.079515000000000000e+06
2.079175000000000000e+06
2.078744000000000000e+06
2.078408000000000000e+06
2.078212000000000000e+06
2.078152000000000000e+06
2.078259000000000000e+06
2.078436000000000000e+06
2.078637000000000000e+06
2.078864000000000000e+06
2.079080000000000000e+06
2.079342000000000000e+06
2.079636000000000000e+06
2.079936000000000000e+06
2.080217000000000000e+06
2.080464000000000000e+06
2.080451000000000000e+06
2.080050000000000000e+06
2.079550000000000000e+06
2.079154000000000000e+06
2.078772000000000000e+06
2.078626000000000000e+06
2.078546000000000000e+06
2.078534000000000000e+06
2.078495000000000000e+06
2.078484000000000000e+06
2.078485000000000000e+06
2.078458000000000000e+06
2.078482000000000000e+06
2.078569000000000000e+06
2.078672000000000000e+06
2.078744000000000000e+06
2.078529000000000000e+06
2.078043000000000000e+06
2.077411000000000000e+06
2.076738000000000000e+06
2.076077000000000000e+06
2.075797000000000000e+06
2.075651000000000000e+06
2.075599000000000000e+06
2.075528000000000000e+06
2.075483000000000000e+06
2.075502000000000000e+06
2.075527000000000000e+06
2.075647000000000000e+06
2.075812000000000000e+06
2.075990000000000000e+06
2.076202000000000000e+06
2.076309000000000000e+06
2.076055000000000000e+06
2.075652000000000000e+06
2.075271000000000000e+06
2.075031000000000000e+06
2.074956000000000000e+06
2.075014000000000000e+06
2.075198000000000000e+06
2.075354000000000000e+06
2.075543000000000000e+06
2.075706000000000000e+06
2.075908000000000000e+06
2.076102000000000000e+06
2.076320000000000000e+06
2.076941000000000000e+06
2.077238000000000000e+06
2.077419000000000000e+06
2.077217000000000000e+06
2.076825000000000000e+06
2.076376000000000000e+06
2.076005000000000000e+06
2.075928000000000000e+06
2.075999000000000000e+06
2.076371000000000000e+06
2.076389000000000000e+06
2.076745000000000000e+06
2.077016000000000000e+06
2.077172000000000000e+06
2.077307000000000000e+06
2.077406000000000000e+06
2.077478000000000000e+06
2.077515000000000000e+06
2.077539000000000000e+06
2.077187000000000000e+06
2.076283000000000000e+06
2.075808000000000000e+06
2.075445000000000000e+06
2.075171000000000000e+06
2.075067000000000000e+06
2.075085000000000000e+06
2.075096000000000000e+06
2.075073000000000000e+06
2.075074000000000000e+06
2.075094000000000000e+06
2.075161000000000000e+06
2.075274000000000000e+06
2.075441000000000000e+06
2.075672000000000000e+06
2.075863000000000000e+06
2.075974000000000000e+06
2.075738000000000000e+06
2.075463000000000000e+06
2.075196000000000000e+06
2.075070000000000000e+06
2.075096000000000000e+06
2.075262000000000000e+06
2.075471000000000000e+06
2.075684000000000000e+06
2.075944000000000000e+06
2.076184000000000000e+06
2.076800000000000000e+06
2.077150000000000000e+06
2.077478000000000000e+06
2.077857000000000000e+06
2.078239000000000000e+06
2.078470000000000000e+06
2.078416000000000000e+06
2.078203000000000000e+06
2.077990000000000000e+06
2.077917000000000000e+06
2.077973000000000000e+06
2.078131000000000000e+06
2.078400000000000000e+06
2.078662000000000000e+06
2.078946000000000000e+06
2.079152000000000000e+06
2.079388000000000000e+06
2.079577000000000000e+06
2.079667000000000000e+06
2.079828000000000000e+06
2.079949000000000000e+06
2.079967000000000000e+06
2.079510000000000000e+06
2.078910000000000000e+06
2.078339000000000000e+06
2.077968000000000000e+06
2.077730000000000000e+06
2.077614000000000000e+06
2.077598000000000000e+06
2.077529000000000000e+06
2.077499000000000000e+06
2.077455000000000000e+06
2.077454000000000000e+06
2.077486000000000000e+06
2.077512000000000000e+06
2.077498000000000000e+06
2.077451000000000000e+06
2.077414000000000000e+06
2.077144000000000000e+06
2.076257000000000000e+06
2.075726000000000000e+06
2.075294000000000000e+06
2.075029000000000000e+06
2.074852000000000000e+06
2.074934000000000000e+06
2.075069000000000000e+06
2.075262000000000000e+06
2.075475000000000000e+06
2.075745000000000000e+06
2.076048000000000000e+06
2.076294000000000000e+06
2.076795000000000000e+06
2.077007000000000000e+06
2.077104000000000000e+06
2.077208000000000000e+06
2.076777000000000000e+06
2.076163000000000000e+06
2.075963000000000000e+06
2.075923000000000000e+06
2.076135000000000000e+06
2.076802000000000000e+06
2.077411000000000000e+06
2.077957000000000000e+06
2.078774000000000000e+06
2.079422000000000000e+06
2.079328000000000000e+06
2.077636000000000000e+06
2.075758000000000000e+06
2.077885000000000000e+06
2.080191000000000000e+06
2.081616000000000000e+06
2.081260000000000000e+06
2.080110000000000000e+06
2.079328000000000000e+06
2.078837000000000000e+06
2.078240000000000000e+06
2.077256000000000000e+06
2.075288000000000000e+06
2.076343000000000000e+06
2.076846000000000000e+06
2.077447000000000000e+06
2.078328000000000000e+06
2.079161000000000000e+06
2.079769000000000000e+06
2.080232000000000000e+06
2.080756000000000000e+06
2.081131000000000000e+06
2.081112000000000000e+06
2.080839000000000000e+06
2.080547000000000000e+06
2.080455000000000000e+06
2.080534000000000000e+06
2.080807000000000000e+06
2.081136000000000000e+06
2.081521000000000000e+06
2.081924000000000000e+06
2.082311000000000000e+06
2.082762000000000000e+06
2.083204000000000000e+06
2.083595000000000000e+06
2.084041000000000000e+06
2.084501000000000000e+06
2.084928000000000000e+06
2.084968000000000000e+06
2.084877000000000000e+06
2.084673000000000000e+06
2.084562000000000000e+06
2.084559000000000000e+06
2.084727000000000000e+06
2.084961000000000000e+06
2.085102000000000000e+06
2.085259000000000000e+06
2.085493000000000000e+06
2.085763000000000000e+06
2.086015000000000000e+06
2.086275000000000000e+06
2.086516000000000000e+06
2.086725000000000000e+06
2.086959000000000000e+06
2.086829000000000000e+06
2.086375000000000000e+06
2.085721000000000000e+06
2.085326000000000000e+06
2.085132000000000000e+06
2.085073000000000000e+06
2.085076000000000000e+06
2.085110000000000000e+06
2.085122000000000000e+06
2.085140000000000000e+06
2.085132000000000000e+06
2.085150000000000000e+06
2.085159000000000000e+06
2.085241000000000000e+06
2.085343000000000000e+06
2.085485000000000000e+06
2.085435000000000000e+06
2.085113000000000000e+06
2.084804000000000000e+06
2.084325000000000000e+06
2.083959000000000000e+06
2.083806000000000000e+06
2.083804000000000000e+06
2.083921000000000000e+06
2.084077000000000000e+06
2.084193000000000000e+06
2.084389000000000000e+06
2.084715000000000000e+06
2.084918000000000000e+06
2.084970000000000000e+06
2.085054000000000000e+06
2.085162000000000000e+06
2.085475000000000000e+06
2.085680000000000000e+06
2.085517000000000000e+06
2.085350000000000000e+06
2.085240000000000000e+06
2.085179000000000000e+06
2.085364000000000000e+06
2.085471000000000000e+06
2.085507000000000000e+06
2.086764000000000000e+06
2.089190000000000000e+06
2.090562000000000000e+06
2.090569000000000000e+06
2.092028000000000000e+06
2.093334000000000000e+06
2.096905000000000000e+06
2.099927000000000000e+06
2.101871000000000000e+06
2.106817000000000000e+06
2.111191000000000000e+06
2.113028000000000000e+06
2.115528000000000000e+06
2.117332000000000000e+06
2.119407000000000000e+06
2.121332000000000000e+06
2.122542000000000000e+06
2.123546000000000000e+06
2.124516000000000000e+06
2.126076000000000000e+06
2.127047000000000000e+06
2.128530000000000000e+06
2.129869000000000000e+06
2.131285000000000000e+06
2.132680000000000000e+06
2.133224000000000000e+06
2.133850000000000000e+06
2.134262000000000000e+06
2.134630000000000000e+06
2.135324000000000000e+06
2.136241000000000000e+06
2.136850000000000000e+06
2.137701000000000000e+06
2.138356000000000000e+06
2.138455000000000000e+06
2.138310000000000000e+06
2.138027000000000000e+06
2.137389000000000000e+06
2.134853000000000000e+06
2.129434000000000000e+06
2.125718000000000000e+06
2.123631000000000000e+06
2.121932000000000000e+06
2.119791000000000000e+06
2.118570000000000000e+06
2.117947000000000000e+06
2.116860000000000000e+06
2.115188000000000000e+06
2.113979000000000000e+06
2.113228000000000000e+06
2.112525000000000000e+06
2.112052000000000000e+06
2.111859000000000000e+06
2.111025000000000000e+06
2.110365000000000000e+06
2.110120000000000000e+06
2.109719000000000000e+06
2.109437000000000000e+06
2.109160000000000000e+06
2.109030000000000000e+06
2.109276000000000000e+06
2.108091000000000000e+06
2.106604000000000000e+06
2.105398000000000000e+06
2.104431000000000000e+06
2.103751000000000000e+06
2.103157000000000000e+06
2.102565000000000000e+06
2.102147000000000000e+06
2.101659000000000000e+06
2.101195000000000000e+06
2.100793000000000000e+06
2.100426000000000000e+06
2.100060000000000000e+06
2.099752000000000000e+06
2.099351000000000000e+06
2.099086000000000000e+06
2.098644000000000000e+06
2.097605000000000000e+06
2.096312000000000000e+06
2.094989000000000000e+06
2.093785000000000000e+06
2.092653000000000000e+06
2.091854000000000000e+06
2.091220000000000000e+06
2.090666000000000000e+06
2.090004000000000000e+06
2.089409000000000000e+06
2.088857000000000000e+06
2.088447000000000000e+06
2.088045000000000000e+06
2.087704000000000000e+06
2.087438000000000000e+06
2.087148000000000000e+06
2.086937000000000000e+06
2.086453000000000000e+06
2.085431000000000000e+06
2.084600000000000000e+06
2.083520000000000000e+06
2.082538000000000000e+06
2.081796000000000000e+06
2.081277000000000000e+06
2.080840000000000000e+06
2.080303000000000000e+06
2.079826000000000000e+06
2.079395000000000000e+06
2.079033000000000000e+06
2.078605000000000000e+06
2.078333000000000000e+06
2.078118000000000000e+06
2.077895000000000000e+06
2.077691000000000000e+06
2.077463000000000000e+06
2.076533000000000000e+06
2.075241000000000000e+06
2.074240000000000000e+06
2.073421000000000000e+06
2.072752000000000000e+06
2.072253000000000000e+06
2.071896000000000000e+06
2.071607000000000000e+06
2.071254000000000000e+06
2.070891000000000000e+06
2.070566000000000000e+06
2.070265000000000000e+06
2.070034000000000000e+06
2.069850000000000000e+06
2.069706000000000000e+06
2.069588000000000000e+06
2.069486000000000000e+06
2.068923000000000000e+06
2.067987000000000000e+06
2.067227000000000000e+06
2.066304000000000000e+06
2.065545000000000000e+06
2.065031000000000000e+06
2.064659000000000000e+06
2.064348000000000000e+06
2.064064000000000000e+06
2.063785000000000000e+06
2.063548000000000000e+06
2.063333000000000000e+06
2.063193000000000000e+06
2.063074000000000000e+06
2.062996000000000000e+06
2.062918000000000000e+06
2.062902000000000000e+06
2.062852000000000000e+06
2.062410000000000000e+06
2.061669000000000000e+06
2.060884000000000000e+06
2.060315000000000000e+06
2.059909000000000000e+06
2.059685000000000000e+06
2.059575000000000000e+06
2.059548000000000000e+06
2.059452000000000000e+06
2.059449000000000000e+06
2.059371000000000000e+06
2.059557000000000000e+06
2.059683000000000000e+06
2.059821000000000000e+06
2.059955000000000000e+06
2.060150000000000000e+06
2.060246000000000000e+06
2.060027000000000000e+06
2.059380000000000000e+06
2.058742000000000000e+06
2.058412000000000000e+06
2.058262000000000000e+06
2.058310000000000000e+06
2.058453000000000000e+06
2.058646000000000000e+06
2.058817000000000000e+06
2.058997000000000000e+06
2.059103000000000000e+06
2.059350000000000000e+06
2.059530000000000000e+06
2.059638000000000000e+06
2.059754000000000000e+06
2.059914000000000000e+06
2.059947000000000000e+06
2.059469000000000000e+06
2.058666000000000000e+06
2.058038000000000000e+06
2.057481000000000000e+06
2.057104000000000000e+06
2.056910000000000000e+06
2.056836000000000000e+06
2.056811000000000000e+06
2.056795000000000000e+06
2.056815000000000000e+06
2.056819000000000000e+06
2.056876000000000000e+06
2.056928000000000000e+06
2.057046000000000000e+06
2.057192000000000000e+06
2.057319000000000000e+06
2.057418000000000000e+06
2.057139000000000000e+06
2.056534000000000000e+06
2.055906000000000000e+06
2.055395000000000000e+06
2.054977000000000000e+06
2.054835000000000000e+06
2.054854000000000000e+06
2.054902000000000000e+06
2.054997000000000000e+06
2.055141000000000000e+06
2.055262000000000000e+06
2.055443000000000000e+06
2.055653000000000000e+06
2.055878000000000000e+06
2.056191000000000000e+06
2.056453000000000000e+06
2.056708000000000000e+06
2.056547000000000000e+06
2.056164000000000000e+06
2.055830000000000000e+06
2.055607000000000000e+06
2.055515000000000000e+06
2.055615000000000000e+06
2.055837000000000000e+06
2.056075000000000000e+06
2.056344000000000000e+06
2.056607000000000000e+06
2.056934000000000000e+06
2.057266000000000000e+06
2.057617000000000000e+06
2.058043000000000000e+06
2.058439000000000000e+06
2.058830000000000000e+06
2.059077000000000000e+06
2.058902000000000000e+06
2.058605000000000000e+06
2.058301000000000000e+06
2.058123000000000000e+06
2.058078000000000000e+06
2.058184000000000000e+06
2.058360000000000000e+06
2.058482000000000000e+06
2.058638000000000000e+06
2.058796000000000000e+06
2.058969000000000000e+06
2.059167000000000000e+06
2.059582000000000000e+06
2.059857000000000000e+06
2.060066000000000000e+06
2.060279000000000000e+06
2.060310000000000000e+06
2.060015000000000000e+06
2.059416000000000000e+06
2.058673000000000000e+06
2.058282000000000000e+06
2.058037000000000000e+06
2.057969000000000000e+06
2.057996000000000000e+06
2.058092000000000000e+06
2.058166000000000000e+06
2.058232000000000000e+06
2.058312000000000000e+06
2.058434000000000000e+06
2.058624000000000000e+06
2.058766000000000000e+06
2.058990000000000000e+06
2.059469000000000000e+06
2.059752000000000000e+06
2.059681000000000000e+06
2.059025000000000000e+06
2.058652000000000000e+06
2.058363000000000000e+06
2.058191000000000000e+06
2.058196000000000000e+06
2.058335000000000000e+06
2.058513000000000000e+06
2.058701000000000000e+06
2.058891000000000000e+06
2.059114000000000000e+06
2.059667000000000000e+06
2.059941000000000000e+06
2.060287000000000000e+06
2.060573000000000000e+06
2.060929000000000000e+06
2.061261000000000000e+06
2.061512000000000000e+06
2.061366000000000000e+06
2.061127000000000000e+06
2.060922000000000000e+06
2.060825000000000000e+06
2.060883000000000000e+06
2.061077000000000000e+06
2.061358000000000000e+06
2.061653000000000000e+06
2.061982000000000000e+06
2.062306000000000000e+06
2.062646000000000000e+06
2.062984000000000000e+06
2.063305000000000000e+06
2.063666000000000000e+06
2.064005000000000000e+06
2.064291000000000000e+06
2.064515000000000000e+06
2.064457000000000000e+06
2.064068000000000000e+06
2.063675000000000000e+06
2.063251000000000000e+06
2.062996000000000000e+06
2.062854000000000000e+06
2.062855000000000000e+06
2.062914000000000000e+06
2.062967000000000000e+06
2.063054000000000000e+06
2.063121000000000000e+06
2.063205000000000000e+06
2.063351000000000000e+06
2.063594000000000000e+06
2.063750000000000000e+06
2.064000000000000000e+06
2.064189000000000000e+06
2.064259000000000000e+06
2.063994000000000000e+06
2.063586000000000000e+06
2.063188000000000000e+06
2.062866000000000000e+06
2.062660000000000000e+06
2.062613000000000000e+06
2.062652000000000000e+06
2.062696000000000000e+06
2.062786000000000000e+06
2.062858000000000000e+06
2.062980000000000000e+06
2.063068000000000000e+06
2.063104000000000000e+06
2.063117000000000000e+06
2.063193000000000000e+06
2.063276000000000000e+06
2.063264000000000000e+06
2.062956000000000000e+06
2.062482000000000000e+06
2.062055000000000000e+06
2.061677000000000000e+06
2.061525000000000000e+06
2.061505000000000000e+06
2.061586000000000000e+06
2.061594000000000000e+06
2.061618000000000000e+06
2.061737000000000000e+06
2.061967000000000000e+06
2.062233000000000000e+06
2.062459000000000000e+06
2.062682000000000000e+06
2.062909000000000000e+06
2.063080000000000000e+06
2.063058000000000000e+06
2.062838000000000000e+06
2.062553000000000000e+06
2.062399000000000000e+06
2.062369000000000000e+06
2.062424000000000000e+06
2.062533000000000000e+06
2.062733000000000000e+06
2.062860000000000000e+06
2.062961000000000000e+06
2.063186000000000000e+06
2.063466000000000000e+06
2.063825000000000000e+06
2.064147000000000000e+06
2.064556000000000000e+06
2.064883000000000000e+06
2.064923000000000000e+06
2.064664000000000000e+06
2.064374000000000000e+06
2.064233000000000000e+06
2.064148000000000000e+06
2.064194000000000000e+06
2.064364000000000000e+06
2.064572000000000000e+06
2.064721000000000000e+06
2.064856000000000000e+06
2.065031000000000000e+06
2.065156000000000000e+06
2.065305000000000000e+06
2.065440000000000000e+06
2.065603000000000000e+06
2.065719000000000000e+06
2.065628000000000000e+06
2.065146000000000000e+06
2.064657000000000000e+06
2.064151000000000000e+06
2.063818000000000000e+06
2.063584000000000000e+06
2.063570000000000000e+06
2.063628000000000000e+06
2.063700000000000000e+06
2.063740000000000000e+06
2.063752000000000000e+06
2.063807000000000000e+06
2.063839000000000000e+06
2.063946000000000000e+06
2.064056000000000000e+06
2.064185000000000000e+06
2.064334000000000000e+06
2.064079000000000000e+06
2.063617000000000000e+06
2.063132000000000000e+06
2.062845000000000000e+06
2.062698000000000000e+06
2.062731000000000000e+06
2.062848000000000000e+06
2.063004000000000000e+06
2.063157000000000000e+06
2.063369000000000000e+06
2.063604000000000000e+06
2.063853000000000000e+06
2.064097000000000000e+06
2.064374000000000000e+06
2.064709000000000000e+06
2.064976000000000000e+06
2.064910000000000000e+06
2.064617000000000000e+06
2.064318000000000000e+06
2.064155000000000000e+06
2.064112000000000000e+06
2.064210000000000000e+06
2.064327000000000000e+06
2.064492000000000000e+06
2.064590000000000000e+06
2.064693000000000000e+06
2.064810000000000000e+06
2.064935000000000000e+06
2.065044000000000000e+06
2.065200000000000000e+06
2.065318000000000000e+06
2.065507000000000000e+06
2.065448000000000000e+06
2.065025000000000000e+06
2.064479000000000000e+06
2.063979000000000000e+06
2.063571000000000000e+06
2.063276000000000000e+06
2.063189000000000000e+06
2.063105000000000000e+06
2.063022000000000000e+06
2.062905000000000000e+06
2.062838000000000000e+06
2.062804000000000000e+06
2.062814000000000000e+06
2.062904000000000000e+06
2.062951000000000000e+06
2.063073000000000000e+06
2.063191000000000000e+06
2.063157000000000000e+06
2.062784000000000000e+06
2.062263000000000000e+06
2.061852000000000000e+06
2.061584000000000000e+06
2.061524000000000000e+06
2.061638000000000000e+06
2.061845000000000000e+06
2.062088000000000000e+06
2.062292000000000000e+06
2.062533000000000000e+06
2.062884000000000000e+06
2.063203000000000000e+06
2.063604000000000000e+06
2.063960000000000000e+06
2.064342000000000000e+06
2.064669000000000000e+06
2.064781000000000000e+06
2.064489000000000000e+06
2.064163000000000000e+06
2.063967000000000000e+06
2.063870000000000000e+06
2.064002000000000000e+06
2.064235000000000000e+06
2.064523000000000000e+06
2.064751000000000000e+06
2.064976000000000000e+06
2.065205000000000000e+06
2.065475000000000000e+06
2.065687000000000000e+06
2.065931000000000000e+06
2.066150000000000000e+06
2.066407000000000000e+06
2.066671000000000000e+06
2.066609000000000000e+06
2.066153000000000000e+06
2.065562000000000000e+06
2.065021000000000000e+06
2.064614000000000000e+06
2.064383000000000000e+06
2.064366000000000000e+06
2.064469000000000000e+06
2.064549000000000000e+06
2.064601000000000000e+06
2.064671000000000000e+06
2.064762000000000000e+06
2.064909000000000000e+06
2.065074000000000000e+06
2.065198000000000000e+06
2.065372000000000000e+06
2.065483000000000000e+06
2.065388000000000000e+06
2.064814000000000000e+06
2.064143000000000000e+06
2.063440000000000000e+06
2.062964000000000000e+06
2.062720000000000000e+06
2.062616000000000000e+06
2.062620000000000000e+06
2.062679000000000000e+06
2.062736000000000000e+06
2.062823000000000000e+06
2.062957000000000000e+06
2.063123000000000000e+06
2.063342000000000000e+06
2.063602000000000000e+06
2.063885000000000000e+06
2.064157000000000000e+06
2.064238000000000000e+06
2.063862000000000000e+06
2.063380000000000000e+06
2.063056000000000000e+06
2.062864000000000000e+06
2.062935000000000000e+06
2.063103000000000000e+06
2.063367000000000000e+06
2.063656000000000000e+06
2.063924000000000000e+06
2.064188000000000000e+06
2.064505000000000000e+06
2.064829000000000000e+06
2.065144000000000000e+06
2.065470000000000000e+06
2.065769000000000000e+06
2.066005000000000000e+06
2.065992000000000000e+06
2.065568000000000000e+06
2.065033000000000000e+06
2.064562000000000000e+06
2.064196000000000000e+06
2.064020000000000000e+06
2.064012000000000000e+06
2.064082000000000000e+06
2.064130000000000000e+06
2.064169000000000000e+06
2.064234000000000000e+06
2.064293000000000000e+06
2.064408000000000000e+06
2.064487000000000000e+06
2.064605000000000000e+06
2.064746000000000000e+06
2.064907000000000000e+06
2.064909000000000000e+06
2.064477000000000000e+06
2.063812000000000000e+06
2.063155000000000000e+06
2.062691000000000000e+06
2.062411000000000000e+06
2.062301000000000000e+06
2.062330000000000000e+06
2.062428000000000000e+06
2.062524000000000000e+06
2.062672000000000000e+06
2.062830000000000000e+06
2.062996000000000000e+06
2.063251000000000000e+06
2.063534000000000000e+06
2.063831000000000000e+06
2.064085000000000000e+06
2.064283000000000000e+06
2.064142000000000000e+06
2.063643000000000000e+06
2.063170000000000000e+06
2.062837000000000000e+06
2.062717000000000000e+06
2.062755000000000000e+06
2.062929000000000000e+06
2.063094000000000000e+06
2.063278000000000000e+06
2.063510000000000000e+06
2.063785000000000000e+06
2.064109000000000000e+06
2.064421000000000000e+06
2.064789000000000000e+06
2.065159000000000000e+06
2.065521000000000000e+06
2.065798000000000000e+06
2.065685000000000000e+06
2.065319000000000000e+06
2.064966000000000000e+06
2.064651000000000000e+06
2.064503000000000000e+06
2.064528000000000000e+06
2.064622000000000000e+06
2.064766000000000000e+06
2.064905000000000000e+06
2.065023000000000000e+06
2.065154000000000000e+06
2.065309000000000000e+06
2.065520000000000000e+06
2.065682000000000000e+06
2.065905000000000000e+06
2.066078000000000000e+06
2.066230000000000000e+06
2.066057000000000000e+06
2.065518000000000000e+06
2.064886000000000000e+06
2.064347000000000000e+06
2.063947000000000000e+06
2.063663000000000000e+06
2.063604000000000000e+06
2.063629000000000000e+06
2.063626000000000000e+06
2.063670000000000000e+06
2.063712000000000000e+06
2.063827000000000000e+06
2.063985000000000000e+06
2.064146000000000000e+06
2.064340000000000000e+06
2.064571000000000000e+06
2.064729000000000000e+06
2.064716000000000000e+06
2.064272000000000000e+06
2.063746000000000000e+06
2.063273000000000000e+06
2.062972000000000000e+06
2.062902000000000000e+06
2.062966000000000000e+06
2.063152000000000000e+06
2.063300000000000000e+06
2.063520000000000000e+06
2.063769000000000000e+06
2.064045000000000000e+06
2.064348000000000000e+06
2.064641000000000000e+06
2.064984000000000000e+06
2.065299000000000000e+06
2.065663000000000000e+06
2.065822000000000000e+06
2.065535000000000000e+06
2.065183000000000000e+06
2.064820000000000000e+06
2.064590000000000000e+06
2.064545000000000000e+06
2.064639000000000000e+06
2.064777000000000000e+06
2.064931000000000000e+06
2.065114000000000000e+06
2.065236000000000000e+06
2.065426000000000000e+06
2.065642000000000000e+06
2.065875000000000000e+06
2.066067000000000000e+06
2.066265000000000000e+06
2.066499000000000000e+06
2.066656000000000000e+06
2.066577000000000000e+06
2.066111000000000000e+06
2.065536000000000000e+06
2.064915000000000000e+06
2.064551000000000000e+06
2.064366000000000000e+06
2.064350000000000000e+06
2.064399000000000000e+06
2.064435000000000000e+06
2.064498000000000000e+06
2.064541000000000000e+06
2.064642000000000000e+06
2.064742000000000000e+06
2.064882000000000000e+06
2.065062000000000000e+06
2.065240000000000000e+06
2.065438000000000000e+06
2.065607000000000000e+06
2.065591000000000000e+06
2.065178000000000000e+06
2.064694000000000000e+06
2.064333000000000000e+06
2.064075000000000000e+06
2.064003000000000000e+06
2.064121000000000000e+06
2.064280000000000000e+06
2.064464000000000000e+06
2.064648000000000000e+06
2.064860000000000000e+06
2.065080000000000000e+06
2.065344000000000000e+06
2.065640000000000000e+06
2.065952000000000000e+06
2.066294000000000000e+06
2.066617000000000000e+06
2.066953000000000000e+06
2.067103000000000000e+06
2.066894000000000000e+06
2.066584000000000000e+06
2.066311000000000000e+06
2.066171000000000000e+06
2.066210000000000000e+06
2.066355000000000000e+06
2.066575000000000000e+06
2.066783000000000000e+06
2.066974000000000000e+06
2.067133000000000000e+06
2.067390000000000000e+06
2.067588000000000000e+06
2.067756000000000000e+06
2.067851000000000000e+06
2.067943000000000000e+06
2.068090000000000000e+06
2.068341000000000000e+06
2.068492000000000000e+06
2.068292000000000000e+06
2.067913000000000000e+06
2.067664000000000000e+06
2.067232000000000000e+06
2.066944000000000000e+06
2.066808000000000000e+06
2.066837000000000000e+06
2.066944000000000000e+06
2.067048000000000000e+06
2.067092000000000000e+06
2.067189000000000000e+06
2.067288000000000000e+06
2.067393000000000000e+06
2.067573000000000000e+06
2.067714000000000000e+06
2.067735000000000000e+06
2.067817000000000000e+06
2.067924000000000000e+06
2.067949000000000000e+06
2.067878000000000000e+06
2.067588000000000000e+06
2.067089000000000000e+06
2.066695000000000000e+06
2.066461000000000000e+06
2.066395000000000000e+06
2.066467000000000000e+06
2.066583000000000000e+06
2.066732000000000000e+06
2.066892000000000000e+06
2.067098000000000000e+06
2.067301000000000000e+06
2.067562000000000000e+06
2.067733000000000000e+06
2.067886000000000000e+06
2.068057000000000000e+06
2.068300000000000000e+06
2.068556000000000000e+06
2.068641000000000000e+06
2.068327000000000000e+06
2.068014000000000000e+06
2.067834000000000000e+06
2.067771000000000000e+06
2.067741000000000000e+06
2.067796000000000000e+06
2.067904000000000000e+06
2.068001000000000000e+06
2.068223000000000000e+06
2.068500000000000000e+06
2.068834000000000000e+06
2.069103000000000000e+06
2.069374000000000000e+06
2.069617000000000000e+06
2.069879000000000000e+06
2.070063000000000000e+06
2.070171000000000000e+06
2.069855000000000000e+06
2.069369000000000000e+06
2.068822000000000000e+06
2.068374000000000000e+06
2.068046000000000000e+06
2.067915000000000000e+06
2.067910000000000000e+06
2.067899000000000000e+06
2.067864000000000000e+06
2.067870000000000000e+06
2.067862000000000000e+06
2.067878000000000000e+06
2.067917000000000000e+06
2.067920000000000000e+06
2.067927000000000000e+06
2.067966000000000000e+06
2.068033000000000000e+06
2.068022000000000000e+06
2.067779000000000000e+06
2.067279000000000000e+06
2.066685000000000000e+06
2.066206000000000000e+06
2.065904000000000000e+06
2.065780000000000000e+06
2.065762000000000000e+06
2.065824000000000000e+06
2.065849000000000000e+06
2.065928000000000000e+06
2.066025000000000000e+06
2.066154000000000000e+06
2.066291000000000000e+06
2.066450000000000000e+06
2.066679000000000000e+06
2.066895000000000000e+06
2.067052000000000000e+06
2.066907000000000000e+06
2.066393000000000000e+06
2.065913000000000000e+06
2.065491000000000000e+06
2.065291000000000000e+06
2.065272000000000000e+06
2.065382000000000000e+06
2.065549000000000000e+06
2.065704000000000000e+06
2.065948000000000000e+06
2.066192000000000000e+06
2.066429000000000000e+06
2.066666000000000000e+06
2.066898000000000000e+06
2.067131000000000000e+06
2.067310000000000000e+06
2.067415000000000000e+06
2.067143000000000000e+06
2.066488000000000000e+06
2.065787000000000000e+06
2.065220000000000000e+06
2.064778000000000000e+06
2.064500000000000000e+06
2.064403000000000000e+06
2.064350000000000000e+06
2.064341000000000000e+06
2.064338000000000000e+06
2.064334000000000000e+06
2.064402000000000000e+06
2.064486000000000000e+06
2.064631000000000000e+06
2.064776000000000000e+06
2.064959000000000000e+06
2.065133000000000000e+06
2.065116000000000000e+06
2.064635000000000000e+06
2.063939000000000000e+06
2.063245000000000000e+06
2.062796000000000000e+06
2.062587000000000000e+06
2.062557000000000000e+06
2.062665000000000000e+06
2.062850000000000000e+06
2.062996000000000000e+06
2.063186000000000000e+06
2.063321000000000000e+06
2.063579000000000000e+06
2.063846000000000000e+06
2.064151000000000000e+06
2.064406000000000000e+06
2.064669000000000000e+06
2.064888000000000000e+06
2.064780000000000000e+06
2.064252000000000000e+06
2.063678000000000000e+06
2.063141000000000000e+06
2.062811000000000000e+06
2.062761000000000000e+06
2.062883000000000000e+06
2.063071000000000000e+06
2.063222000000000000e+06
2.063389000000000000e+06
2.063593000000000000e+06
2.063803000000000000e+06
2.064008000000000000e+06
2.064186000000000000e+06
2.064384000000000000e+06
2.064540000000000000e+06
2.064707000000000000e+06
2.064651000000000000e+06
2.064068000000000000e+06
2.063296000000000000e+06
2.062684000000000000e+06
2.062223000000000000e+06
2.062013000000000000e+06
2.061970000000000000e+06
2.062024000000000000e+06
2.062103000000000000e+06
2.062155000000000000e+06
2.062208000000000000e+06
2.062317000000000000e+06
2.062423000000000000e+06
2.062615000000000000e+06
2.062776000000000000e+06
2.062942000000000000e+06
2.063131000000000000e+06
2.063309000000000000e+06
2.063095000000000000e+06
2.062395000000000000e+06
2.061734000000000000e+06
2.061097000000000000e+06
2.060659000000000000e+06
2.060476000000000000e+06
2.060409000000000000e+06
2.060434000000000000e+06
2.060505000000000000e+06
2.060601000000000000e+06
2.060655000000000000e+06
2.060784000000000000e+06
2.060948000000000000e+06
2.061143000000000000e+06
2.061343000000000000e+06
2.061597000000000000e+06
2.061841000000000000e+06
2.062003000000000000e+06
2.061703000000000000e+06
2.061105000000000000e+06
2.060556000000000000e+06
2.060156000000000000e+06
2.059970000000000000e+06
2.060049000000000000e+06
2.060213000000000000e+06
2.060402000000000000e+06
2.060627000000000000e+06
2.060845000000000000e+06
2.061137000000000000e+06
2.061430000000000000e+06
2.061792000000000000e+06
2.062169000000000000e+06
2.062600000000000000e+06
2.063025000000000000e+06
2.063257000000000000e+06
2.063037000000000000e+06
2.062567000000000000e+06
2.062113000000000000e+06
2.061859000000000000e+06
2.061775000000000000e+06
2.061875000000000000e+06
2.062033000000000000e+06
2.062234000000000000e+06
2.062372000000000000e+06
2.062532000000000000e+06
2.062726000000000000e+06
2.062931000000000000e+06
2.063176000000000000e+06
2.063432000000000000e+06
2.063718000000000000e+06
2.063962000000000000e+06
2.064167000000000000e+06
2.063986000000000000e+06
2.063269000000000000e+06
2.062574000000000000e+06
2.061953000000000000e+06
2.061485000000000000e+06
2.061251000000000000e+06
2.061172000000000000e+06
2.061239000000000000e+06
2.061291000000000000e+06
2.061328000000000000e+06
2.061360000000000000e+06
2.061425000000000000e+06
2.061527000000000000e+06
2.061707000000000000e+06
2.061913000000000000e+06
2.062138000000000000e+06
2.062362000000000000e+06
2.062588000000000000e+06
2.062235000000000000e+06
2.061658000000000000e+06
2.061062000000000000e+06
2.060669000000000000e+06
2.060458000000000000e+06
2.060478000000000000e+06
2.060639000000000000e+06
2.060822000000000000e+06
2.061024000000000000e+06
2.061225000000000000e+06
2.061492000000000000e+06
2.061819000000000000e+06
2.062179000000000000e+06
2.062572000000000000e+06
2.062994000000000000e+06
2.063389000000000000e+06
2.063868000000000000e+06
2.064103000000000000e+06
2.063784000000000000e+06
2.063289000000000000e+06
2.062891000000000000e+06
2.062663000000000000e+06
2.062604000000000000e+06
2.062721000000000000e+06
2.062880000000000000e+06
2.063070000000000000e+06
2.063268000000000000e+06
2.063424000000000000e+06
2.063681000000000000e+06
2.063900000000000000e+06
2.064183000000000000e+06
2.064407000000000000e+06
2.064644000000000000e+06
2.064929000000000000e+06
2.065159000000000000e+06
2.065288000000000000e+06
2.064956000000000000e+06
2.064325000000000000e+06
2.063729000000000000e+06
2.063183000000000000e+06
2.062867000000000000e+06
2.062780000000000000e+06
2.062810000000000000e+06
2.062842000000000000e+06
2.062891000000000000e+06
2.062922000000000000e+06
2.063036000000000000e+06
2.063167000000000000e+06
2.063384000000000000e+06
2.063687000000000000e+06
2.063950000000000000e+06
2.064274000000000000e+06
2.064567000000000000e+06
2.064850000000000000e+06
2.064658000000000000e+06
2.064243000000000000e+06
2.063861000000000000e+06
2.063582000000000000e+06
2.063420000000000000e+06
2.063497000000000000e+06
2.063756000000000000e+06
2.063944000000000000e+06
2.064173000000000000e+06
2.064395000000000000e+06
2.064650000000000000e+06
2.064923000000000000e+06
2.065265000000000000e+06
2.065611000000000000e+06
2.065997000000000000e+06
2.066369000000000000e+06
2.066754000000000000e+06
2.067024000000000000e+06
2.066875000000000000e+06
2.066581000000000000e+06
2.066298000000000000e+06
2.066117000000000000e+06
2.066123000000000000e+06
2.066256000000000000e+06
2.066489000000000000e+06
2.066677000000000000e+06
2.066860000000000000e+06
2.067026000000000000e+06
2.067275000000000000e+06
2.067509000000000000e+06
2.067715000000000000e+06
2.067846000000000000e+06
2.067958000000000000e+06
2.068165000000000000e+06
2.068358000000000000e+06
2.068457000000000000e+06
2.068118000000000000e+06
2.067797000000000000e+06
2.067362000000000000e+06
2.066924000000000000e+06
2.066635000000000000e+06
2.066518000000000000e+06
2.066513000000000000e+06
2.066576000000000000e+06
2.066624000000000000e+06
2.066688000000000000e+06
2.066788000000000000e+06
2.066863000000000000e+06
2.067015000000000000e+06
2.067146000000000000e+06
2.067268000000000000e+06
2.067446000000000000e+06
2.067593000000000000e+06
2.067686000000000000e+06
2.067338000000000000e+06
2.066742000000000000e+06
2.066194000000000000e+06
2.065750000000000000e+06
2.065465000000000000e+06
2.065368000000000000e+06
2.065407000000000000e+06
2.065522000000000000e+06
2.065617000000000000e+06
2.065757000000000000e+06
2.065919000000000000e+06
2.066109000000000000e+06
2.066334000000000000e+06
2.066579000000000000e+06
2.066860000000000000e+06
2.067145000000000000e+06
2.067411000000000000e+06
2.067678000000000000e+06
2.067547000000000000e+06
2.067121000000000000e+06
2.066648000000000000e+06
2.066342000000000000e+06
2.066146000000000000e+06
2.066217000000000000e+06
2.066374000000000000e+06
2.066606000000000000e+06
2.066820000000000000e+06
2.067062000000000000e+06
2.067237000000000000e+06
2.067515000000000000e+06
2.067708000000000000e+06
2.067841000000000000e+06
2.067956000000000000e+06
2.068125000000000000e+06
2.068383000000000000e+06
2.068485000000000000e+06
2.068383000000000000e+06
2.067919000000000000e+06
2.067521000000000000e+06
2.066913000000000000e+06
2.066398000000000000e+06
2.066050000000000000e+06
2.065950000000000000e+06
2.065942000000000000e+06
2.065997000000000000e+06
2.066015000000000000e+06
2.066085000000000000e+06
2.066192000000000000e+06
2.066299000000000000e+06
2.066458000000000000e+06
2.066620000000000000e+06
2.066799000000000000e+06
2.066944000000000000e+06
2.067089000000000000e+06
2.067169000000000000e+06
2.066807000000000000e+06
2.066152000000000000e+06
2.065603000000000000e+06
2.065113000000000000e+06
2.064799000000000000e+06
2.064693000000000000e+06
2.064760000000000000e+06
2.064831000000000000e+06
2.064950000000000000e+06
2.065067000000000000e+06
2.065200000000000000e+06
2.065376000000000000e+06
2.065547000000000000e+06
2.065779000000000000e+06
2.065989000000000000e+06
2.066234000000000000e+06
2.066483000000000000e+06
2.066728000000000000e+06
2.066668000000000000e+06
2.066215000000000000e+06
2.065809000000000000e+06
2.065427000000000000e+06
2.065264000000000000e+06
2.065283000000000000e+06
2.065465000000000000e+06
2.065647000000000000e+06
2.065854000000000000e+06
2.066013000000000000e+06
2.066219000000000000e+06
2.066401000000000000e+06
2.066605000000000000e+06
2.066809000000000000e+06
2.066978000000000000e+06
2.067178000000000000e+06
2.067376000000000000e+06
2.067564000000000000e+06
2.067360000000000000e+06
2.066831000000000000e+06
2.066217000000000000e+06
2.065709000000000000e+06
2.065347000000000000e+06
2.065227000000000000e+06
2.065278000000000000e+06
2.065384000000000000e+06
2.065489000000000000e+06
2.065557000000000000e+06
2.065637000000000000e+06
2.065754000000000000e+06
2.065853000000000000e+06
2.066013000000000000e+06
2.066202000000000000e+06
2.066378000000000000e+06
2.066559000000000000e+06
2.066732000000000000e+06
2.066710000000000000e+06
2.066177000000000000e+06
2.065526000000000000e+06
2.064903000000000000e+06
2.064390000000000000e+06
2.064144000000000000e+06
2.064066000000000000e+06
2.064059000000000000e+06
2.064112000000000000e+06
2.064148000000000000e+06
2.064211000000000000e+06
2.064314000000000000e+06
2.064451000000000000e+06
2.064668000000000000e+06
2.064873000000000000e+06
2.065096000000000000e+06
2.065361000000000000e+06
2.065637000000000000e+06
2.065907000000000000e+06
2.065836000000000000e+06
2.065389000000000000e+06
2.064896000000000000e+06
2.064499000000000000e+06
2.064303000000000000e+06
2.064284000000000000e+06
2.064452000000000000e+06
2.064614000000000000e+06
2.064794000000000000e+06
2.065005000000000000e+06
2.065221000000000000e+06
2.065489000000000000e+06
2.065757000000000000e+06
2.066078000000000000e+06
2.066434000000000000e+06
2.066740000000000000e+06
2.067088000000000000e+06
2.067362000000000000e+06
2.067356000000000000e+06
2.066945000000000000e+06
2.066441000000000000e+06
2.066009000000000000e+06
2.065740000000000000e+06
2.065648000000000000e+06
2.065754000000000000e+06
2.065935000000000000e+06
2.066102000000000000e+06
2.066267000000000000e+06
2.066447000000000000e+06
2.066662000000000000e+06
2.066873000000000000e+06
2.067116000000000000e+06
2.067382000000000000e+06
2.067644000000000000e+06
2.067749000000000000e+06
2.067904000000000000e+06
2.067945000000000000e+06
2.067883000000000000e+06
2.067538000000000000e+06
2.066848000000000000e+06
2.066319000000000000e+06
2.065914000000000000e+06
2.065650000000000000e+06
2.065620000000000000e+06
2.065658000000000000e+06
2.065670000000000000e+06
2.065701000000000000e+06
2.065690000000000000e+06
2.065729000000000000e+06
2.065843000000000000e+06
2.065941000000000000e+06
2.066110000000000000e+06
2.066263000000000000e+06
2.066464000000000000e+06
2.066684000000000000e+06
2.066883000000000000e+06
2.066910000000000000e+06
2.066457000000000000e+06
2.065891000000000000e+06
2.065378000000000000e+06
2.064982000000000000e+06
2.064886000000000000e+06
2.064937000000000000e+06
2.065086000000000000e+06
2.065292000000000000e+06
2.065523000000000000e+06
2.065812000000000000e+06
2.066022000000000000e+06
2.066295000000000000e+06
2.066517000000000000e+06
2.066781000000000000e+06
2.067039000000000000e+06
2.067303000000000000e+06
2.067550000000000000e+06
2.067743000000000000e+06
2.067672000000000000e+06
2.067186000000000000e+06
2.066668000000000000e+06
2.066219000000000000e+06
2.065962000000000000e+06
2.065907000000000000e+06
2.065979000000000000e+06
2.066085000000000000e+06
2.066218000000000000e+06
2.066349000000000000e+06
2.066485000000000000e+06
2.066671000000000000e+06
2.066848000000000000e+06
2.067051000000000000e+06
2.067305000000000000e+06
2.067511000000000000e+06
2.067731000000000000e+06
2.067832000000000000e+06
2.067950000000000000e+06
2.067874000000000000e+06
2.067446000000000000e+06
2.066812000000000000e+06
2.066183000000000000e+06
2.065775000000000000e+06
2.065494000000000000e+06
2.065454000000000000e+06
2.065458000000000000e+06
2.065469000000000000e+06
2.065457000000000000e+06
2.065470000000000000e+06
2.065547000000000000e+06
2.065601000000000000e+06
2.065692000000000000e+06
2.065827000000000000e+06
2.065959000000000000e+06
2.066064000000000000e+06
2.066254000000000000e+06
2.066379000000000000e+06
2.066093000000000000e+06
2.065471000000000000e+06
2.064790000000000000e+06
2.064265000000000000e+06
2.063920000000000000e+06
2.063841000000000000e+06
2.063908000000000000e+06
2.064034000000000000e+06
2.064085000000000000e+06
2.064176000000000000e+06
2.064271000000000000e+06
2.064409000000000000e+06
2.064633000000000000e+06
2.064880000000000000e+06
2.065119000000000000e+06
2.065424000000000000e+06
2.065661000000000000e+06
2.065840000000000000e+06
2.065524000000000000e+06
2.064894000000000000e+06
2.064388000000000000e+06
2.063958000000000000e+06
2.063787000000000000e+06
2.063802000000000000e+06
2.063966000000000000e+06
2.064120000000000000e+06
2.064288000000000000e+06
2.064431000000000000e+06
2.064654000000000000e+06
2.064854000000000000e+06
2.065056000000000000e+06
2.065336000000000000e+06
2.065622000000000000e+06
2.065846000000000000e+06
2.066130000000000000e+06
2.066322000000000000e+06
2.065967000000000000e+06
2.065228000000000000e+06
2.064436000000000000e+06
2.063752000000000000e+06
2.063229000000000000e+06
2.063045000000000000e+06
2.063057000000000000e+06
2.063060000000000000e+06
2.063051000000000000e+06
2.062976000000000000e+06
2.062919000000000000e+06
2.062860000000000000e+06
2.062956000000000000e+06
2.063039000000000000e+06
2.063235000000000000e+06
2.063429000000000000e+06
2.063720000000000000e+06
2.063983000000000000e+06
2.063691000000000000e+06
2.062921000000000000e+06
2.062167000000000000e+06
2.061552000000000000e+06
2.061135000000000000e+06
2.060999000000000000e+06
2.060951000000000000e+06
2.061007000000000000e+06
2.061041000000000000e+06
2.061038000000000000e+06
2.061009000000000000e+06
2.060954000000000000e+06
2.061086000000000000e+06
2.061246000000000000e+06
2.061559000000000000e+06
2.061944000000000000e+06
2.062357000000000000e+06
2.062761000000000000e+06
2.062849000000000000e+06
2.062438000000000000e+06
2.062037000000000000e+06
2.061759000000000000e+06
2.061738000000000000e+06
2.061944000000000000e+06
2.062354000000000000e+06
2.062868000000000000e+06
2.063372000000000000e+06
2.063837000000000000e+06
2.064259000000000000e+06
2.064694000000000000e+06
2.065102000000000000e+06
2.065523000000000000e+06
2.065927000000000000e+06
2.066326000000000000e+06
2.066675000000000000e+06
2.067106000000000000e+06
2.067321000000000000e+06
2.066931000000000000e+06
2.066294000000000000e+06
2.065644000000000000e+06
2.065117000000000000e+06
2.064863000000000000e+06
2.064849000000000000e+06
2.064964000000000000e+06
2.065101000000000000e+06
2.065253000000000000e+06
2.065492000000000000e+06
2.065763000000000000e+06
2.066121000000000000e+06
2.066471000000000000e+06
2.066847000000000000e+06
2.067275000000000000e+06
2.067654000000000000e+06
2.067883000000000000e+06
2.068004000000000000e+06
2.067912000000000000e+06
2.067432000000000000e+06
2.066711000000000000e+06
2.066135000000000000e+06
2.065763000000000000e+06
2.065615000000000000e+06
2.065650000000000000e+06
2.065779000000000000e+06
2.065884000000000000e+06
2.065981000000000000e+06
2.066147000000000000e+06
2.066319000000000000e+06
2.066542000000000000e+06
2.066829000000000000e+06
2.067130000000000000e+06
2.067469000000000000e+06
2.067731000000000000e+06
2.067767000000000000e+06
2.067448000000000000e+06
2.066764000000000000e+06
2.066167000000000000e+06
2.065762000000000000e+06
2.065592000000000000e+06
2.065633000000000000e+06
2.065795000000000000e+06
2.065949000000000000e+06
2.066122000000000000e+06
2.066272000000000000e+06
2.066468000000000000e+06
2.066698000000000000e+06
2.066964000000000000e+06
2.067301000000000000e+06
2.067623000000000000e+06
2.067798000000000000e+06
2.067955000000000000e+06
2.067880000000000000e+06
2.067346000000000000e+06
2.066565000000000000e+06
2.065899000000000000e+06
2.065405000000000000e+06
2.065193000000000000e+06
2.065128000000000000e+06
2.065245000000000000e+06
2.065307000000000000e+06
2.065378000000000000e+06
2.065388000000000000e+06
2.065416000000000000e+06
2.065552000000000000e+06
2.065717000000000000e+06
2.065884000000000000e+06
2.066053000000000000e+06
2.066270000000000000e+06
2.066505000000000000e+06
2.066332000000000000e+06
2.065833000000000000e+06
2.065291000000000000e+06
2.064787000000000000e+06
2.064637000000000000e+06
2.064730000000000000e+06
2.064777000000000000e+06
2.064869000000000000e+06
2.064984000000000000e+06
2.064930000000000000e+06
2.065027000000000000e+06
2.065197000000000000e+06
2.065374000000000000e+06
2.065499000000000000e+06
2.065603000000000000e+06
2.065859000000000000e+06
2.066254000000000000e+06
2.066569000000000000e+06
2.066161000000000000e+06
2.065343000000000000e+06
2.064531000000000000e+06
2.063905000000000000e+06
2.063392000000000000e+06
2.063103000000000000e+06
2.063034000000000000e+06
2.063074000000000000e+06
2.063162000000000000e+06
2.063336000000000000e+06
2.063613000000000000e+06
2.063912000000000000e+06
2.064261000000000000e+06
2.064535000000000000e+06
2.064827000000000000e+06
2.065055000000000000e+06
2.065300000000000000e+06
2.065284000000000000e+06
2.064723000000000000e+06
2.064132000000000000e+06
2.063436000000000000e+06
2.063034000000000000e+06
2.062817000000000000e+06
2.062916000000000000e+06
2.063034000000000000e+06
2.063169000000000000e+06
2.063297000000000000e+06
2.063373000000000000e+06
2.063466000000000000e+06
2.063659000000000000e+06
2.063850000000000000e+06
2.064096000000000000e+06
2.064326000000000000e+06
2.064608000000000000e+06
2.064774000000000000e+06
2.064515000000000000e+06
2.064047000000000000e+06
2.063667000000000000e+06
2.063369000000000000e+06
2.063342000000000000e+06
2.063540000000000000e+06
2.063882000000000000e+06
2.064184000000000000e+06
2.064450000000000000e+06
2.064685000000000000e+06
2.064954000000000000e+06
2.065249000000000000e+06
2.065568000000000000e+06
2.065897000000000000e+06
2.066292000000000000e+06
2.066669000000000000e+06
2.066866000000000000e+06
2.066626000000000000e+06
2.066172000000000000e+06
2.065769000000000000e+06
2.065505000000000000e+06
2.065438000000000000e+06
2.065521000000000000e+06
2.065674000000000000e+06
2.065837000000000000e+06
2.065994000000000000e+06
2.066104000000000000e+06
2.066295000000000000e+06
2.066489000000000000e+06
2.066735000000000000e+06
2.066990000000000000e+06
2.067291000000000000e+06
2.067671000000000000e+06
2.067646000000000000e+06
2.067221000000000000e+06
2.066712000000000000e+06
2.066255000000000000e+06
2.066048000000000000e+06
2.066031000000000000e+06
2.066124000000000000e+06
2.066306000000000000e+06
2.066498000000000000e+06
2.066628000000000000e+06
2.066776000000000000e+06
2.066914000000000000e+06
2.067121000000000000e+06
2.067372000000000000e+06
2.067643000000000000e+06
2.067810000000000000e+06
2.067970000000000000e+06
2.067993000000000000e+06
2.067792000000000000e+06
2.067467000000000000e+06
2.067071000000000000e+06
2.066833000000000000e+06
2.066809000000000000e+06
2.066971000000000000e+06
2.067165000000000000e+06
2.067451000000000000e+06
2.067643000000000000e+06
2.067774000000000000e+06
2.067933000000000000e+06
2.068162000000000000e+06
2.068513000000000000e+06
2.068820000000000000e+06
2.069195000000000000e+06
2.069584000000000000e+06
2.069625000000000000e+06
2.069327000000000000e+06
2.069019000000000000e+06
2.068833000000000000e+06
2.068788000000000000e+06
2.068944000000000000e+06
2.069213000000000000e+06
2.069559000000000000e+06
2.069885000000000000e+06
2.070169000000000000e+06
2.070387000000000000e+06
2.070706000000000000e+06
2.071001000000000000e+06
2.071239000000000000e+06
2.071508000000000000e+06
2.071814000000000000e+06
2.071971000000000000e+06
2.071685000000000000e+06
2.071191000000000000e+06
2.070691000000000000e+06
2.070358000000000000e+06
2.070155000000000000e+06
2.070131000000000000e+06
2.070166000000000000e+06
2.070300000000000000e+06
2.070376000000000000e+06
2.070471000000000000e+06
2.070547000000000000e+06
2.070670000000000000e+06
2.070785000000000000e+06
2.070933000000000000e+06
2.071111000000000000e+06
2.071284000000000000e+06
2.071397000000000000e+06
2.071330000000000000e+06
2.070873000000000000e+06
2.070363000000000000e+06
2.069959000000000000e+06
2.069676000000000000e+06
2.069646000000000000e+06
2.069740000000000000e+06
2.069916000000000000e+06
2.070138000000000000e+06
2.070329000000000000e+06
2.070573000000000000e+06
2.070826000000000000e+06
2.071090000000000000e+06
2.071393000000000000e+06
2.071708000000000000e+06
2.072032000000000000e+06
2.072436000000000000e+06
2.072694000000000000e+06
2.072561000000000000e+06
2.072277000000000000e+06
2.072003000000000000e+06
2.071889000000000000e+06
2.071955000000000000e+06
2.072183000000000000e+06
2.072485000000000000e+06
2.072744000000000000e+06
2.072934000000000000e+06
2.073184000000000000e+06
2.073401000000000000e+06
2.073640000000000000e+06
2.073899000000000000e+06
2.074097000000000000e+06
2.074306000000000000e+06
2.074480000000000000e+06
2.074517000000000000e+06
2.074165000000000000e+06
2.073614000000000000e+06
2.073038000000000000e+06
2.072606000000000000e+06
2.072377000000000000e+06
2.072280000000000000e+06
2.072331000000000000e+06
2.072351000000000000e+06
2.072377000000000000e+06
2.072356000000000000e+06
2.072395000000000000e+06
2.072408000000000000e+06
2.072452000000000000e+06
2.072523000000000000e+06
2.072631000000000000e+06
2.072750000000000000e+06
2.072865000000000000e+06
2.072730000000000000e+06
2.072162000000000000e+06
2.071496000000000000e+06
2.070835000000000000e+06
2.070427000000000000e+06
2.070181000000000000e+06
2.070127000000000000e+06
2.070220000000000000e+06
2.070279000000000000e+06
2.070390000000000000e+06
2.070495000000000000e+06
2.070669000000000000e+06
2.070839000000000000e+06
2.071072000000000000e+06
2.071325000000000000e+06
2.071573000000000000e+06
2.071847000000000000e+06
2.072114000000000000e+06
2.071877000000000000e+06
2.071341000000000000e+06
2.070809000000000000e+06
2.070396000000000000e+06
2.070198000000000000e+06
2.070257000000000000e+06
2.070447000000000000e+06
2.070625000000000000e+06
2.070841000000000000e+06
2.071099000000000000e+06
2.071323000000000000e+06
2.071559000000000000e+06
2.071841000000000000e+06
2.072084000000000000e+06
2.072453000000000000e+06
2.072783000000000000e+06
2.073019000000000000e+06
2.072729000000000000e+06
2.072014000000000000e+06
2.071296000000000000e+06
2.070706000000000000e+06
2.070335000000000000e+06
2.070177000000000000e+06
2.070155000000000000e+06
2.070196000000000000e+06
2.070213000000000000e+06
2.070211000000000000e+06
2.070231000000000000e+06
2.070262000000000000e+06
2.070369000000000000e+06
2.070468000000000000e+06
2.070622000000000000e+06
2.070756000000000000e+06
2.070907000000000000e+06
2.070772000000000000e+06
2.070081000000000000e+06
2.069230000000000000e+06
2.068479000000000000e+06
2.067999000000000000e+06
2.067844000000000000e+06
2.067801000000000000e+06
2.067878000000000000e+06
2.067875000000000000e+06
2.067900000000000000e+06
2.067895000000000000e+06
2.067924000000000000e+06
2.068022000000000000e+06
2.068227000000000000e+06
2.068479000000000000e+06
2.068750000000000000e+06
2.069076000000000000e+06
2.069304000000000000e+06
2.069073000000000000e+06
2.068525000000000000e+06
2.067994000000000000e+06
2.067788000000000000e+06
2.067740000000000000e+06
2.067737000000000000e+06
2.067926000000000000e+06
2.068012000000000000e+06
2.068287000000000000e+06
2.068498000000000000e+06
2.068727000000000000e+06
2.068988000000000000e+06
2.069295000000000000e+06
2.069639000000000000e+06
2.070048000000000000e+06
2.070459000000000000e+06
2.070664000000000000e+06
2.070320000000000000e+06
2.069719000000000000e+06
2.069229000000000000e+06
2.068901000000000000e+06
2.068778000000000000e+06
2.068872000000000000e+06
2.069028000000000000e+06
2.069204000000000000e+06
2.069319000000000000e+06
2.069415000000000000e+06
2.069531000000000000e+06
2.069641000000000000e+06
2.069771000000000000e+06
2.069933000000000000e+06
2.070092000000000000e+06
2.070278000000000000e+06
2.070377000000000000e+06
2.069877000000000000e+06
2.069110000000000000e+06
2.068307000000000000e+06
2.067848000000000000e+06
2.067605000000000000e+06
2.067448000000000000e+06
2.067447000000000000e+06
2.067488000000000000e+06
2.067533000000000000e+06
2.067519000000000000e+06
2.067564000000000000e+06
2.067634000000000000e+06
2.067726000000000000e+06
2.067799000000000000e+06
2.067943000000000000e+06
2.068126000000000000e+06
2.068360000000000000e+06
2.068223000000000000e+06
2.067845000000000000e+06
2.067346000000000000e+06
2.066833000000000000e+06
2.066598000000000000e+06
2.066580000000000000e+06
2.066733000000000000e+06
2.067020000000000000e+06
2.067273000000000000e+06
2.067481000000000000e+06
2.067723000000000000e+06
2.067848000000000000e+06
2.068040000000000000e+06
2.068383000000000000e+06
2.068769000000000000e+06
2.069087000000000000e+06
2.069355000000000000e+06
2.069162000000000000e+06
2.068653000000000000e+06
2.068144000000000000e+06
2.067920000000000000e+06
2.067910000000000000e+06
2.067925000000000000e+06
2.068104000000000000e+06
2.068362000000000000e+06
2.068592000000000000e+06
2.068794000000000000e+06
2.068969000000000000e+06
2.069131000000000000e+06
2.069324000000000000e+06
2.069534000000000000e+06
2.069760000000000000e+06
2.069928000000000000e+06
2.070043000000000000e+06
2.069649000000000000e+06
2.068907000000000000e+06
2.068186000000000000e+06
2.067789000000000000e+06
2.067536000000000000e+06
2.067365000000000000e+06
2.067390000000000000e+06
2.067444000000000000e+06
2.067451000000000000e+06
2.067466000000000000e+06
2.067508000000000000e+06
2.067575000000000000e+06
2.067685000000000000e+06
2.067735000000000000e+06
2.067793000000000000e+06
2.067874000000000000e+06
2.067914000000000000e+06
2.067729000000000000e+06
2.067122000000000000e+06
2.066463000000000000e+06
2.066016000000000000e+06
2.065742000000000000e+06
2.065746000000000000e+06
2.065922000000000000e+06
2.066135000000000000e+06
2.066327000000000000e+06
2.066512000000000000e+06
2.066780000000000000e+06
2.067013000000000000e+06
2.067311000000000000e+06
2.067614000000000000e+06
2.067792000000000000e+06
2.067984000000000000e+06
2.068243000000000000e+06
2.068018000000000000e+06
2.067709000000000000e+06
2.067366000000000000e+06
2.067017000000000000e+06
2.066921000000000000e+06
2.067062000000000000e+06
2.067323000000000000e+06
2.067628000000000000e+06
2.067756000000000000e+06
2.067928000000000000e+06
2.068166000000000000e+06
2.068502000000000000e+06
2.068817000000000000e+06
2.069133000000000000e+06
2.069442000000000000e+06
2.069702000000000000e+06
2.069866000000000000e+06
2.069536000000000000e+06
2.068915000000000000e+06
2.068317000000000000e+06
2.067929000000000000e+06
2.067766000000000000e+06
2.067757000000000000e+06
2.067809000000000000e+06
2.067900000000000000e+06
2.067928000000000000e+06
2.068015000000000000e+06
2.068115000000000000e+06
2.068228000000000000e+06
2.068396000000000000e+06
2.068605000000000000e+06
2.068781000000000000e+06
2.068972000000000000e+06
2.069185000000000000e+06
2.069019000000000000e+06
2.068429000000000000e+06
2.067915000000000000e+06
2.067572000000000000e+06
2.067181000000000000e+06
2.067074000000000000e+06
2.067142000000000000e+06
2.067266000000000000e+06
2.067393000000000000e+06
2.067497000000000000e+06
2.067679000000000000e+06
2.067778000000000000e+06
2.067911000000000000e+06
2.068144000000000000e+06
2.068524000000000000e+06
2.068797000000000000e+06
2.069134000000000000e+06
2.069309000000000000e+06
2.069066000000000000e+06
2.068629000000000000e+06
2.068266000000000000e+06
2.068061000000000000e+06
2.068043000000000000e+06
2.068185000000000000e+06
2.068478000000000000e+06
2.068787000000000000e+06
2.069079000000000000e+06
2.069371000000000000e+06
2.069684000000000000e+06
2.070050000000000000e+06
2.070407000000000000e+06
2.070814000000000000e+06
2.071196000000000000e+06
2.071545000000000000e+06
2.071802000000000000e+06
2.071581000000000000e+06
2.071121000000000000e+06
2.070606000000000000e+06
2.070222000000000000e+06
2.069968000000000000e+06
2.069959000000000000e+06
2.070021000000000000e+06
2.070127000000000000e+06
2.070203000000000000e+06
2.070266000000000000e+06
2.070383000000000000e+06
2.070487000000000000e+06
2.070615000000000000e+06
2.070728000000000000e+06
2.070916000000000000e+06
2.071083000000000000e+06
2.071262000000000000e+06
2.071184000000000000e+06
2.070517000000000000e+06
2.069964000000000000e+06
2.069453000000000000e+06
2.069126000000000000e+06
2.069002000000000000e+06
2.069022000000000000e+06
2.069132000000000000e+06
2.069262000000000000e+06
2.069353000000000000e+06
2.069513000000000000e+06
2.069707000000000000e+06
2.069947000000000000e+06
2.070196000000000000e+06
2.070501000000000000e+06
2.070777000000000000e+06
2.071087000000000000e+06
2.071186000000000000e+06
2.070855000000000000e+06
2.070400000000000000e+06
2.070024000000000000e+06
2.069824000000000000e+06
2.069772000000000000e+06
2.069889000000000000e+06
2.070085000000000000e+06
2.070275000000000000e+06
2.070531000000000000e+06
2.070737000000000000e+06
2.071022000000000000e+06
2.071335000000000000e+06
2.071634000000000000e+06
2.071988000000000000e+06
2.072366000000000000e+06
2.072720000000000000e+06
2.072777000000000000e+06
2.072379000000000000e+06
2.071804000000000000e+06
2.071362000000000000e+06
2.071084000000000000e+06
2.070948000000000000e+06
2.070986000000000000e+06
2.071027000000000000e+06
2.071131000000000000e+06
2.071183000000000000e+06
2.071232000000000000e+06
2.071316000000000000e+06
2.071395000000000000e+06
2.071521000000000000e+06
2.071668000000000000e+06
2.071822000000000000e+06
2.071948000000000000e+06
2.071668000000000000e+06
2.071021000000000000e+06
2.070281000000000000e+06
2.069682000000000000e+06
2.069270000000000000e+06
2.069050000000000000e+06
2.068953000000000000e+06
2.068985000000000000e+06
2.069004000000000000e+06
2.068969000000000000e+06
2.069015000000000000e+06
2.069108000000000000e+06
2.069204000000000000e+06
2.069373000000000000e+06
2.069572000000000000e+06
2.069828000000000000e+06
2.070035000000000000e+06
2.069925000000000000e+06
2.069417000000000000e+06
2.068808000000000000e+06
2.068367000000000000e+06
2.068112000000000000e+06
2.068043000000000000e+06
2.068153000000000000e+06
2.068326000000000000e+06
2.068491000000000000e+06
2.068705000000000000e+06
2.068911000000000000e+06
2.069131000000000000e+06
2.069408000000000000e+06
2.069701000000000000e+06
2.069997000000000000e+06
2.070299000000000000e+06
2.070601000000000000e+06
2.070578000000000000e+06
2.070093000000000000e+06
2.069597000000000000e+06
2.069271000000000000e+06
2.069143000000000000e+06
2.069161000000000000e+06
2.069335000000000000e+06
2.069563000000000000e+06
2.069779000000000000e+06
2.069959000000000000e+06
2.070190000000000000e+06
2.070408000000000000e+06
2.070641000000000000e+06
2.070818000000000000e+06
2.071008000000000000e+06
2.071239000000000000e+06
2.071398000000000000e+06
2.071151000000000000e+06
2.070551000000000000e+06
2.069912000000000000e+06
2.069354000000000000e+06
2.069013000000000000e+06
2.068869000000000000e+06
2.068894000000000000e+06
2.068995000000000000e+06
2.069057000000000000e+06
2.069092000000000000e+06
2.069168000000000000e+06
2.069246000000000000e+06
2.069360000000000000e+06
2.069470000000000000e+06
2.069610000000000000e+06
2.069814000000000000e+06
2.069976000000000000e+06
2.070026000000000000e+06
2.069596000000000000e+06
2.069039000000000000e+06
2.068578000000000000e+06
2.068269000000000000e+06
2.068194000000000000e+06
2.068300000000000000e+06
2.068532000000000000e+06
2.068782000000000000e+06
2.068966000000000000e+06
2.069211000000000000e+06
2.069424000000000000e+06
2.069657000000000000e+06
2.069929000000000000e+06
2.070208000000000000e+06
2.070545000000000000e+06
2.070816000000000000e+06
2.071144000000000000e+06
2.071106000000000000e+06
2.070672000000000000e+06
2.070294000000000000e+06
2.070021000000000000e+06
2.069973000000000000e+06
2.070123000000000000e+06
2.070356000000000000e+06
2.070639000000000000e+06
2.070877000000000000e+06
2.071062000000000000e+06
2.071196000000000000e+06
2.071307000000000000e+06
2.071480000000000000e+06
2.071653000000000000e+06
2.071854000000000000e+06
2.072049000000000000e+06
2.072299000000000000e+06
2.072136000000000000e+06
2.071634000000000000e+06
2.071054000000000000e+06
2.070629000000000000e+06
2.070351000000000000e+06
2.070244000000000000e+06
2.070253000000000000e+06
2.070401000000000000e+06
2.070516000000000000e+06
2.070556000000000000e+06
2.070641000000000000e+06
2.070762000000000000e+06
2.070847000000000000e+06
2.070995000000000000e+06
2.071160000000000000e+06
2.071306000000000000e+06
2.071495000000000000e+06
2.071668000000000000e+06
2.071489000000000000e+06
2.070953000000000000e+06
2.070403000000000000e+06
2.069958000000000000e+06
2.069684000000000000e+06
2.069609000000000000e+06
2.069651000000000000e+06
2.069789000000000000e+06
2.069900000000000000e+06
2.070020000000000000e+06
2.070152000000000000e+06
2.070370000000000000e+06
2.070626000000000000e+06
2.070887000000000000e+06
2.071177000000000000e+06
2.071444000000000000e+06
2.071770000000000000e+06
2.072141000000000000e+06
2.072150000000000000e+06
2.071752000000000000e+06
2.071380000000000000e+06
2.071052000000000000e+06
2.070994000000000000e+06
2.071130000000000000e+06
2.071355000000000000e+06
2.071604000000000000e+06
2.071851000000000000e+06
2.072082000000000000e+06
2.072433000000000000e+06
2.072704000000000000e+06
2.073018000000000000e+06
2.073319000000000000e+06
2.073606000000000000e+06
2.073860000000000000e+06
2.074097000000000000e+06
2.074013000000000000e+06
2.073544000000000000e+06
2.072980000000000000e+06
2.072506000000000000e+06
2.072085000000000000e+06
2.071928000000000000e+06
2.071940000000000000e+06
2.072036000000000000e+06
2.072123000000000000e+06
2.072190000000000000e+06
2.072257000000000000e+06
2.072324000000000000e+06
2.072432000000000000e+06
2.072523000000000000e+06
2.072674000000000000e+06
2.072811000000000000e+06
2.072931000000000000e+06
2.073029000000000000e+06
2.072676000000000000e+06
2.071937000000000000e+06
2.071251000000000000e+06
2.070717000000000000e+06
2.070375000000000000e+06
2.070162000000000000e+06
2.070122000000000000e+06
2.070153000000000000e+06
2.070158000000000000e+06
2.070194000000000000e+06
2.070259000000000000e+06
2.070402000000000000e+06
2.070593000000000000e+06
2.070810000000000000e+06
2.071102000000000000e+06
2.071379000000000000e+06
2.071751000000000000e+06
2.071836000000000000e+06
2.071397000000000000e+06
2.070835000000000000e+06
2.070338000000000000e+06
2.070030000000000000e+06
2.069918000000000000e+06
2.070022000000000000e+06
2.070177000000000000e+06
2.070338000000000000e+06
2.070486000000000000e+06
2.070671000000000000e+06
2.070905000000000000e+06
2.071140000000000000e+06
2.071443000000000000e+06
2.071755000000000000e+06
2.072113000000000000e+06
2.072437000000000000e+06
2.072588000000000000e+06
2.072103000000000000e+06
2.071500000000000000e+06
2.070869000000000000e+06
2.070442000000000000e+06
2.070272000000000000e+06
2.070215000000000000e+06
2.070310000000000000e+06
2.070366000000000000e+06
2.070394000000000000e+06
2.070434000000000000e+06
2.070475000000000000e+06
2.070560000000000000e+06
2.070652000000000000e+06
2.070810000000000000e+06
2.070911000000000000e+06
2.071048000000000000e+06
2.071144000000000000e+06
2.070751000000000000e+06
2.069916000000000000e+06
2.069109000000000000e+06
2.068483000000000000e+06
2.068046000000000000e+06
2.067909000000000000e+06
2.067884000000000000e+06
2.067868000000000000e+06
2.067890000000000000e+06
2.067864000000000000e+06
2.067856000000000000e+06
2.067855000000000000e+06
2.067879000000000000e+06
2.067929000000000000e+06
2.068050000000000000e+06
2.068248000000000000e+06
2.068410000000000000e+06
2.068174000000000000e+06
2.067738000000000000e+06
2.067075000000000000e+06
2.066542000000000000e+06
2.066219000000000000e+06
2.066159000000000000e+06
2.066256000000000000e+06
2.066420000000000000e+06
2.066554000000000000e+06
2.066686000000000000e+06
2.066861000000000000e+06
2.067046000000000000e+06
2.067321000000000000e+06
2.067597000000000000e+06
2.067763000000000000e+06
2.067931000000000000e+06
2.068199000000000000e+06
2.068023000000000000e+06
2.067723000000000000e+06
2.067109000000000000e+06
2.066693000000000000e+06
2.066512000000000000e+06
2.066528000000000000e+06
2.066720000000000000e+06
2.066913000000000000e+06
2.067056000000000000e+06
2.067156000000000000e+06
2.067272000000000000e+06
2.067407000000000000e+06
2.067610000000000000e+06
2.067750000000000000e+06
2.067865000000000000e+06
2.067989000000000000e+06
2.068168000000000000e+06
2.068018000000000000e+06
2.067573000000000000e+06
2.066722000000000000e+06
2.065904000000000000e+06
2.065306000000000000e+06
2.064994000000000000e+06
2.064881000000000000e+06
2.064913000000000000e+06
2.064965000000000000e+06
2.065042000000000000e+06
2.065106000000000000e+06
2.065293000000000000e+06
2.065527000000000000e+06
2.065847000000000000e+06
2.066184000000000000e+06
2.066507000000000000e+06
2.066826000000000000e+06
2.066892000000000000e+06
2.066404000000000000e+06
2.065808000000000000e+06
2.065331000000000000e+06
2.065070000000000000e+06
2.065050000000000000e+06
2.065222000000000000e+06
2.065440000000000000e+06
2.065721000000000000e+06
2.065966000000000000e+06
2.066209000000000000e+06
2.066537000000000000e+06
2.066873000000000000e+06
2.067255000000000000e+06
2.067641000000000000e+06
2.067850000000000000e+06
2.068066000000000000e+06
2.068073000000000000e+06
2.067753000000000000e+06
2.067213000000000000e+06
2.066649000000000000e+06
2.066340000000000000e+06
2.066221000000000000e+06
2.066286000000000000e+06
2.066452000000000000e+06
2.066602000000000000e+06
2.066754000000000000e+06
2.066925000000000000e+06
2.067078000000000000e+06
2.067279000000000000e+06
2.067500000000000000e+06
2.067715000000000000e+06
2.067838000000000000e+06
2.067982000000000000e+06
2.067976000000000000e+06
2.067704000000000000e+06
2.067044000000000000e+06
2.066394000000000000e+06
2.066038000000000000e+06
2.065807000000000000e+06
2.065799000000000000e+06
2.065923000000000000e+06
2.066029000000000000e+06
2.066125000000000000e+06
2.066262000000000000e+06
2.066507000000000000e+06
2.066794000000000000e+06
2.067110000000000000e+06
2.067477000000000000e+06
2.067732000000000000e+06
2.067921000000000000e+06
2.068021000000000000e+06
2.067827000000000000e+06
2.067498000000000000e+06
2.067077000000000000e+06
2.066838000000000000e+06
2.066827000000000000e+06
2.066953000000000000e+06
2.067237000000000000e+06
2.067446000000000000e+06
2.067705000000000000e+06
2.067802000000000000e+06
2.067948000000000000e+06
2.068281000000000000e+06
2.068624000000000000e+06
2.069008000000000000e+06
2.069403000000000000e+06
2.069807000000000000e+06
2.069841000000000000e+06
2.069469000000000000e+06
2.068989000000000000e+06
2.068640000000000000e+06
2.068478000000000000e+06
2.068486000000000000e+06
2.068628000000000000e+06
2.068815000000000000e+06
2.069012000000000000e+06
2.069143000000000000e+06
2.069322000000000000e+06
2.069517000000000000e+06
2.069683000000000000e+06
2.069925000000000000e+06
2.070167000000000000e+06
2.070415000000000000e+06
2.070656000000000000e+06
2.070619000000000000e+06
2.070088000000000000e+06
2.069407000000000000e+06
2.068854000000000000e+06
2.068370000000000000e+06
2.068166000000000000e+06
2.068090000000000000e+06
2.068146000000000000e+06
2.068149000000000000e+06
2.068131000000000000e+06
2.068164000000000000e+06
2.068214000000000000e+06
2.068325000000000000e+06
2.068483000000000000e+06
2.068687000000000000e+06
2.068880000000000000e+06
2.069124000000000000e+06
2.069159000000000000e+06
2.068730000000000000e+06
2.068155000000000000e+06
2.067873000000000000e+06
2.067741000000000000e+06
2.067696000000000000e+06
2.067746000000000000e+06
2.067851000000000000e+06
2.067982000000000000e+06
2.068155000000000000e+06
2.068408000000000000e+06
2.068667000000000000e+06
2.068945000000000000e+06
2.069252000000000000e+06
2.069617000000000000e+06
2.069975000000000000e+06
2.070315000000000000e+06
2.070445000000000000e+06
2.070146000000000000e+06
2.069785000000000000e+06
2.069517000000000000e+06
2.069414000000000000e+06
2.069464000000000000e+06
2.069720000000000000e+06
2.069943000000000000e+06
2.070188000000000000e+06
2.070415000000000000e+06
2.070611000000000000e+06
2.070845000000000000e+06
2.071066000000000000e+06
2.071265000000000000e+06
2.071502000000000000e+06
2.071757000000000000e+06
2.071938000000000000e+06
2.071931000000000000e+06
2.071420000000000000e+06
2.070792000000000000e+06
2.070230000000000000e+06
2.069834000000000000e+06
2.069609000000000000e+06
2.069605000000000000e+06
2.069650000000000000e+06
2.069747000000000000e+06
2.069793000000000000e+06
2.069912000000000000e+06
2.069995000000000000e+06
2.070163000000000000e+06
2.070344000000000000e+06
2.070590000000000000e+06
2.070796000000000000e+06
2.071006000000000000e+06
2.070915000000000000e+06
2.070446000000000000e+06
2.069905000000000000e+06
2.069438000000000000e+06
2.069226000000000000e+06
2.069154000000000000e+06
2.069260000000000000e+06
2.069427000000000000e+06
2.069594000000000000e+06
2.069745000000000000e+06
2.069970000000000000e+06
2.070198000000000000e+06
2.070503000000000000e+06
2.070793000000000000e+06
2.071127000000000000e+06
2.071490000000000000e+06
2.071768000000000000e+06
2.071634000000000000e+06
2.071195000000000000e+06
2.070771000000000000e+06
2.070469000000000000e+06
2.070374000000000000e+06
2.070487000000000000e+06
2.070638000000000000e+06
2.070877000000000000e+06
2.071062000000000000e+06
2.071246000000000000e+06
2.071479000000000000e+06
2.071713000000000000e+06
2.071925000000000000e+06
2.072201000000000000e+06
2.072450000000000000e+06
2.072692000000000000e+06
2.072799000000000000e+06
2.072465000000000000e+06
2.071707000000000000e+06
2.071029000000000000e+06
2.070374000000000000e+06
2.070062000000000000e+06
2.069951000000000000e+06
2.069996000000000000e+06
2.069998000000000000e+06
2.070026000000000000e+06
2.070062000000000000e+06
2.070117000000000000e+06
2.070190000000000000e+06
2.070366000000000000e+06
2.070562000000000000e+06
2.070789000000000000e+06
2.071052000000000000e+06
2.071143000000000000e+06
2.070791000000000000e+06
2.070211000000000000e+06
2.069720000000000000e+06
2.069360000000000000e+06
2.069220000000000000e+06
2.069266000000000000e+06
2.069391000000000000e+06
2.069563000000000000e+06
2.069754000000000000e+06
2.069958000000000000e+06
2.070164000000000000e+06
2.070467000000000000e+06
2.070762000000000000e+06
2.071101000000000000e+06
2.071421000000000000e+06
2.071738000000000000e+06
2.071770000000000000e+06
2.071322000000000000e+06
2.070886000000000000e+06
2.070545000000000000e+06
2.070375000000000000e+06
2.070442000000000000e+06
2.070631000000000000e+06
2.070885000000000000e+06
2.071151000000000000e+06
2.071353000000000000e+06
2.071585000000000000e+06
2.071880000000000000e+06
2.072139000000000000e+06
2.072445000000000000e+06
2.072686000000000000e+06
2.072934000000000000e+06
2.073092000000000000e+06
2.072749000000000000e+06
2.072132000000000000e+06
2.071443000000000000e+06
2.070944000000000000e+06
2.070586000000000000e+06
2.070486000000000000e+06
2.070553000000000000e+06
2.070603000000000000e+06
2.070667000000000000e+06
2.070717000000000000e+06
2.070806000000000000e+06
2.070941000000000000e+06
2.071084000000000000e+06
2.071253000000000000e+06
2.071392000000000000e+06
2.071554000000000000e+06
2.071397000000000000e+06
2.070786000000000000e+06
2.070123000000000000e+06
2.069530000000000000e+06
2.069153000000000000e+06
2.068985000000000000e+06
2.069010000000000000e+06
2.069104000000000000e+06
2.069249000000000000e+06
2.069373000000000000e+06
2.069521000000000000e+06
2.069691000000000000e+06
2.069932000000000000e+06
2.070180000000000000e+06
2.070483000000000000e+06
2.070772000000000000e+06
2.071010000000000000e+06
2.070802000000000000e+06
2.070259000000000000e+06
2.069685000000000000e+06
2.069218000000000000e+06
2.069017000000000000e+06
2.069011000000000000e+06
2.069146000000000000e+06
2.069343000000000000e+06
2.069514000000000000e+06
2.069715000000000000e+06
2.069933000000000000e+06
2.070140000000000000e+06
2.070417000000000000e+06
2.070686000000000000e+06
2.070946000000000000e+06
2.071182000000000000e+06
2.071223000000000000e+06
2.070719000000000000e+06
2.069988000000000000e+06
2.069290000000000000e+06
2.068734000000000000e+06
2.068417000000000000e+06
2.068323000000000000e+06
2.068378000000000000e+06
2.068462000000000000e+06
2.068540000000000000e+06
2.068674000000000000e+06
2.068834000000000000e+06
2.069022000000000000e+06
2.069267000000000000e+06
2.069474000000000000e+06
2.069718000000000000e+06
2.069949000000000000e+06
2.069952000000000000e+06
2.069346000000000000e+06
2.068529000000000000e+06
2.067908000000000000e+06
2.067583000000000000e+06
2.067274000000000000e+06
2.067270000000000000e+06
2.067347000000000000e+06
2.067489000000000000e+06
2.067629000000000000e+06
2.067698000000000000e+06
2.067809000000000000e+06
2.067922000000000000e+06
2.068164000000000000e+06
2.068482000000000000e+06
2.068868000000000000e+06
2.069153000000000000e+06
2.069347000000000000e+06
2.068959000000000000e+06
2.068362000000000000e+06
2.067924000000000000e+06
2.067769000000000000e+06
2.067731000000000000e+06
2.067770000000000000e+06
2.067923000000000000e+06
2.068038000000000000e+06
2.068270000000000000e+06
2.068525000000000000e+06
2.068824000000000000e+06
2.069142000000000000e+06
2.069522000000000000e+06
2.069907000000000000e+06
2.070261000000000000e+06
2.070657000000000000e+06
2.070817000000000000e+06
2.070357000000000000e+06
2.069725000000000000e+06
2.069173000000000000e+06
2.068787000000000000e+06
2.068633000000000000e+06
2.068703000000000000e+06
2.068848000000000000e+06
2.069000000000000000e+06
2.069156000000000000e+06
2.069300000000000000e+06
2.069467000000000000e+06
2.069716000000000000e+06
2.069928000000000000e+06
2.070219000000000000e+06
2.070443000000000000e+06
2.070700000000000000e+06
2.070768000000000000e+06
2.070287000000000000e+06
2.069555000000000000e+06
2.068897000000000000e+06
2.068458000000000000e+06
2.068185000000000000e+06
2.068154000000000000e+06
2.068226000000000000e+06
2.068379000000000000e+06
2.068463000000000000e+06
2.068552000000000000e+06
2.068699000000000000e+06
2.068870000000000000e+06
2.069077000000000000e+06
2.069302000000000000e+06
2.069537000000000000e+06
2.069781000000000000e+06
2.070005000000000000e+06
2.069957000000000000e+06
2.069409000000000000e+06
2.068801000000000000e+06
2.068295000000000000e+06
2.068005000000000000e+06
2.067947000000000000e+06
2.068037000000000000e+06
2.068230000000000000e+06
2.068427000000000000e+06
2.068599000000000000e+06
2.068815000000000000e+06
2.069057000000000000e+06
2.069349000000000000e+06
2.069672000000000000e+06
2.069979000000000000e+06
2.070337000000000000e+06
2.070685000000000000e+06
2.070873000000000000e+06
2.070539000000000000e+06
2.070078000000000000e+06
2.069722000000000000e+06
2.069511000000000000e+06
2.069590000000000000e+06
2.069821000000000000e+06
2.070057000000000000e+06
2.070316000000000000e+06
2.070553000000000000e+06
2.070820000000000000e+06
2.071109000000000000e+06
2.071390000000000000e+06
2.071692000000000000e+06
2.072002000000000000e+06
2.072354000000000000e+06
2.072635000000000000e+06
2.072651000000000000e+06
2.072098000000000000e+06
2.071459000000000000e+06
2.070918000000000000e+06
2.070507000000000000e+06
2.070304000000000000e+06
2.070251000000000000e+06
2.070333000000000000e+06
2.070408000000000000e+06
2.070462000000000000e+06
2.070532000000000000e+06
2.070651000000000000e+06
2.070818000000000000e+06
2.070963000000000000e+06
2.071160000000000000e+06
2.071356000000000000e+06
2.071541000000000000e+06
2.071599000000000000e+06
2.071095000000000000e+06
2.070443000000000000e+06
2.069809000000000000e+06
2.069301000000000000e+06
2.069049000000000000e+06
2.068995000000000000e+06
2.069087000000000000e+06
2.069197000000000000e+06
2.069328000000000000e+06
2.069433000000000000e+06
2.069633000000000000e+06
2.069811000000000000e+06
2.070068000000000000e+06
2.070364000000000000e+06
2.070640000000000000e+06
2.070898000000000000e+06
2.071094000000000000e+06
2.070696000000000000e+06
2.070019000000000000e+06
2.069576000000000000e+06
2.069339000000000000e+06
2.069309000000000000e+06
2.069435000000000000e+06
2.069625000000000000e+06
2.069823000000000000e+06
2.070029000000000000e+06
2.070250000000000000e+06
2.070518000000000000e+06
2.070853000000000000e+06
2.071154000000000000e+06
2.071545000000000000e+06
2.071854000000000000e+06
2.072210000000000000e+06
2.072037000000000000e+06
2.071483000000000000e+06
2.070828000000000000e+06
2.070287000000000000e+06
2.069929000000000000e+06
2.069759000000000000e+06
2.069750000000000000e+06
2.069787000000000000e+06
2.069778000000000000e+06
2.069769000000000000e+06
2.069783000000000000e+06
2.069861000000000000e+06
2.069976000000000000e+06
2.070114000000000000e+06
2.070262000000000000e+06
2.070445000000000000e+06
2.070566000000000000e+06
2.070428000000000000e+06
2.069789000000000000e+06
2.068988000000000000e+06
2.068278000000000000e+06
2.067882000000000000e+06
2.067741000000000000e+06
2.067714000000000000e+06
2.067752000000000000e+06
2.067812000000000000e+06
2.067864000000000000e+06
2.067938000000000000e+06
2.067989000000000000e+06
2.068115000000000000e+06
2.068362000000000000e+06
2.068569000000000000e+06
2.068756000000000000e+06
2.068973000000000000e+06
2.069124000000000000e+06
2.068635000000000000e+06
2.068120000000000000e+06
2.067852000000000000e+06
2.067740000000000000e+06
2.067723000000000000e+06
2.067840000000000000e+06
2.067915000000000000e+06
2.068124000000000000e+06
2.068366000000000000e+06
2.068584000000000000e+06
2.068809000000000000e+06
2.069015000000000000e+06
2.069225000000000000e+06
2.069484000000000000e+06
2.069666000000000000e+06
2.069884000000000000e+06
2.069772000000000000e+06
2.069191000000000000e+06
2.068505000000000000e+06
2.067948000000000000e+06
2.067757000000000000e+06
2.067711000000000000e+06
2.067716000000000000e+06
2.067750000000000000e+06
2.067771000000000000e+06
2.067798000000000000e+06
2.067809000000000000e+06
2.067888000000000000e+06
2.067902000000000000e+06
2.067959000000000000e+06
2.068076000000000000e+06
2.068257000000000000e+06
2.068415000000000000e+06
2.068480000000000000e+06
2.068013000000000000e+06
2.067650000000000000e+06
2.067051000000000000e+06
2.066677000000000000e+06
2.066512000000000000e+06
2.066600000000000000e+06
2.066760000000000000e+06
2.066995000000000000e+06
2.067156000000000000e+06
2.067401000000000000e+06
2.067610000000000000e+06
2.067775000000000000e+06
2.067918000000000000e+06
2.068206000000000000e+06
2.068567000000000000e+06
2.069007000000000000e+06
2.069306000000000000e+06
2.069201000000000000e+06
2.068755000000000000e+06
2.068391000000000000e+06
2.068141000000000000e+06
2.068163000000000000e+06
2.068323000000000000e+06
2.068609000000000000e+06
2.068893000000000000e+06
2.069147000000000000e+06
2.069373000000000000e+06
2.069603000000000000e+06
2.069854000000000000e+06
2.070054000000000000e+06
2.070286000000000000e+06
2.070481000000000000e+06
2.070715000000000000e+06
2.070902000000000000e+06
2.070768000000000000e+06
2.070256000000000000e+06
2.069688000000000000e+06
2.069225000000000000e+06
2.068917000000000000e+06
2.068794000000000000e+06
2.068848000000000000e+06
2.068924000000000000e+06
2.069000000000000000e+06
2.069037000000000000e+06
2.069111000000000000e+06
2.069150000000000000e+06
2.069217000000000000e+06
2.069324000000000000e+06
2.069437000000000000e+06
2.069608000000000000e+06
2.069751000000000000e+06
2.069885000000000000e+06
2.069527000000000000e+06
2.068875000000000000e+06
2.068266000000000000e+06
2.067906000000000000e+06
2.067801000000000000e+06
2.067805000000000000e+06
2.067862000000000000e+06
2.067961000000000000e+06
2.068104000000000000e+06
2.068264000000000000e+06
2.068482000000000000e+06
2.068707000000000000e+06
2.069006000000000000e+06
2.069280000000000000e+06
2.069582000000000000e+06
2.069935000000000000e+06
2.070305000000000000e+06
2.070219000000000000e+06
2.069778000000000000e+06
2.069333000000000000e+06
2.069030000000000000e+06
2.068931000000000000e+06
2.069020000000000000e+06
2.069224000000000000e+06
2.069501000000000000e+06
2.069755000000000000e+06
2.069988000000000000e+06
2.070268000000000000e+06
2.070535000000000000e+06
2.070827000000000000e+06
2.071095000000000000e+06
2.071396000000000000e+06
2.071651000000000000e+06
2.071891000000000000e+06
2.071797000000000000e+06
2.071215000000000000e+06
2.070548000000000000e+06
2.069971000000000000e+06
2.069579000000000000e+06
2.069406000000000000e+06
2.069378000000000000e+06
2.069435000000000000e+06
2.069482000000000000e+06
2.069515000000000000e+06
2.069566000000000000e+06
2.069634000000000000e+06
2.069726000000000000e+06
2.069858000000000000e+06
2.069989000000000000e+06
2.070155000000000000e+06
2.070292000000000000e+06
2.070334000000000000e+06
2.069808000000000000e+06
2.068988000000000000e+06
2.068189000000000000e+06
2.067772000000000000e+06
2.067532000000000000e+06
2.067405000000000000e+06
2.067388000000000000e+06
2.067412000000000000e+06
2.067412000000000000e+06
2.067410000000000000e+06
2.067476000000000000e+06
2.067563000000000000e+06
2.067684000000000000e+06
2.067779000000000000e+06
2.067888000000000000e+06
2.068055000000000000e+06
2.068274000000000000e+06
2.068052000000000000e+06
2.067665000000000000e+06
2.066980000000000000e+06
2.066364000000000000e+06
2.066056000000000000e+06
2.065972000000000000e+06
2.066087000000000000e+06
2.066222000000000000e+06
2.066372000000000000e+06
2.066497000000000000e+06
2.066677000000000000e+06
2.066866000000000000e+06
2.067092000000000000e+06
2.067355000000000000e+06
2.067650000000000000e+06
2.067760000000000000e+06
2.067925000000000000e+06
2.067884000000000000e+06
2.067425000000000000e+06
2.066650000000000000e+06
2.066052000000000000e+06
2.065708000000000000e+06
2.065602000000000000e+06
2.065669000000000000e+06
2.065719000000000000e+06
2.065777000000000000e+06
2.065792000000000000e+06
2.065875000000000000e+06
2.065909000000000000e+06
2.066018000000000000e+06
2.066144000000000000e+06
2.066319000000000000e+06
2.066494000000000000e+06
2.066647000000000000e+06
2.066664000000000000e+06
2.065994000000000000e+06
2.065044000000000000e+06
2.064146000000000000e+06
2.063428000000000000e+06
2.063002000000000000e+06
2.062874000000000000e+06
2.062899000000000000e+06
2.062988000000000000e+06
2.063027000000000000e+06
2.063026000000000000e+06
2.063065000000000000e+06
2.063180000000000000e+06
2.063333000000000000e+06
2.063633000000000000e+06
2.063926000000000000e+06
2.064203000000000000e+06
2.064479000000000000e+06
2.064287000000000000e+06
2.063457000000000000e+06
2.062736000000000000e+06
2.062194000000000000e+06
2.061921000000000000e+06
2.061936000000000000e+06
2.062101000000000000e+06
2.062358000000000000e+06
2.062616000000000000e+06
2.062848000000000000e+06
2.063113000000000000e+06
2.063412000000000000e+06
2.063784000000000000e+06
2.064138000000000000e+06
2.064538000000000000e+06
2.064924000000000000e+06
2.065294000000000000e+06
2.065413000000000000e+06
2.064890000000000000e+06
2.064274000000000000e+06
2.063804000000000000e+06
2.063532000000000000e+06
2.063564000000000000e+06
2.063830000000000000e+06
2.064127000000000000e+06
2.064451000000000000e+06
2.064716000000000000e+06
2.065004000000000000e+06
2.065290000000000000e+06
2.065639000000000000e+06
2.065940000000000000e+06
2.066265000000000000e+06
2.066598000000000000e+06
2.066878000000000000e+06
2.067080000000000000e+06
2.066655000000000000e+06
2.065917000000000000e+06
2.065214000000000000e+06
2.064660000000000000e+06
2.064370000000000000e+06
2.064274000000000000e+06
2.064390000000000000e+06
2.064486000000000000e+06
2.064625000000000000e+06
2.064732000000000000e+06
2.064922000000000000e+06
2.065098000000000000e+06
2.065271000000000000e+06
2.065485000000000000e+06
2.065718000000000000e+06
2.065944000000000000e+06
2.066124000000000000e+06
2.065934000000000000e+06
2.065245000000000000e+06
2.064451000000000000e+06
2.063833000000000000e+06
2.063388000000000000e+06
2.063224000000000000e+06
2.063248000000000000e+06
2.063404000000000000e+06
2.063588000000000000e+06
2.063733000000000000e+06
2.063880000000000000e+06
2.064039000000000000e+06
2.064259000000000000e+06
2.064523000000000000e+06
2.064846000000000000e+06
2.065165000000000000e+06
2.065512000000000000e+06
2.065849000000000000e+06
2.065846000000000000e+06
2.065308000000000000e+06
2.064688000000000000e+06
2.064255000000000000e+06
2.064037000000000000e+06
2.064034000000000000e+06
2.064222000000000000e+06
2.064469000000000000e+06
2.064729000000000000e+06
2.064956000000000000e+06
2.065217000000000000e+06
2.065521000000000000e+06
2.065864000000000000e+06
2.066215000000000000e+06
2.066606000000000000e+06
2.067003000000000000e+06
2.067450000000000000e+06
2.067723000000000000e+06
2.067608000000000000e+06
2.067093000000000000e+06
2.066632000000000000e+06
2.066292000000000000e+06
2.066167000000000000e+06
2.066241000000000000e+06
2.066470000000000000e+06
2.066651000000000000e+06
2.066752000000000000e+06
2.066878000000000000e+06
2.066979000000000000e+06
2.067128000000000000e+06
2.067317000000000000e+06
2.067527000000000000e+06
2.067713000000000000e+06
2.067814000000000000e+06
2.067909000000000000e+06
2.067928000000000000e+06
2.067695000000000000e+06
2.067005000000000000e+06
2.066314000000000000e+06
2.065783000000000000e+06
2.065452000000000000e+06
2.065392000000000000e+06
2.065422000000000000e+06
2.065484000000000000e+06
2.065529000000000000e+06
2.065595000000000000e+06
2.065653000000000000e+06
2.065788000000000000e+06
2.065957000000000000e+06
2.066195000000000000e+06
2.066459000000000000e+06
2.066782000000000000e+06
2.067072000000000000e+06
2.067304000000000000e+06
2.067056000000000000e+06
2.066492000000000000e+06
2.065999000000000000e+06
2.065642000000000000e+06
2.065555000000000000e+06
2.065653000000000000e+06
2.065898000000000000e+06
2.066154000000000000e+06
2.066419000000000000e+06
2.066697000000000000e+06
2.066949000000000000e+06
2.067333000000000000e+06
2.067637000000000000e+06
2.067825000000000000e+06
2.067993000000000000e+06
2.068239000000000000e+06
2.068466000000000000e+06
2.068445000000000000e+06
2.067914000000000000e+06
2.067497000000000000e+06
2.066851000000000000e+06
2.066300000000000000e+06
2.066105000000000000e+06
2.066067000000000000e+06
2.066129000000000000e+06
2.066245000000000000e+06
2.066321000000000000e+06
2.066478000000000000e+06
2.066679000000000000e+06
2.066905000000000000e+06
2.067160000000000000e+06
2.067432000000000000e+06
2.067701000000000000e+06
2.067772000000000000e+06
2.067901000000000000e+06
2.067902000000000000e+06
2.067624000000000000e+06
2.066948000000000000e+06
2.066383000000000000e+06
2.066109000000000000e+06
2.066056000000000000e+06
2.066204000000000000e+06
2.066412000000000000e+06
2.066709000000000000e+06
2.066923000000000000e+06
2.067183000000000000e+06
2.067517000000000000e+06
2.067742000000000000e+06
2.067919000000000000e+06
2.068314000000000000e+06
2.068729000000000000e+06
2.069099000000000000e+06
2.069500000000000000e+06
2.069528000000000000e+06
2.069040000000000000e+06
2.068467000000000000e+06
2.067982000000000000e+06
2.067860000000000000e+06
2.067867000000000000e+06
2.067915000000000000e+06
2.068122000000000000e+06
2.068378000000000000e+06
2.068557000000000000e+06
2.068821000000000000e+06
2.069187000000000000e+06
2.069554000000000000e+06
2.069822000000000000e+06
2.070127000000000000e+06
2.070485000000000000e+06
2.070842000000000000e+06
2.071072000000000000e+06
2.070857000000000000e+06
2.070238000000000000e+06
2.069540000000000000e+06
2.068986000000000000e+06
2.068631000000000000e+06
2.068503000000000000e+06
2.068588000000000000e+06
2.068720000000000000e+06
2.068750000000000000e+06
2.068813000000000000e+06
2.068868000000000000e+06
2.068948000000000000e+06
2.069096000000000000e+06
2.069274000000000000e+06
2.069456000000000000e+06
2.069637000000000000e+06
2.069847000000000000e+06
2.069994000000000000e+06
2.069767000000000000e+06
2.069021000000000000e+06
2.068225000000000000e+06
2.067768000000000000e+06
2.067482000000000000e+06
2.067352000000000000e+06
2.067381000000000000e+06
2.067540000000000000e+06
2.067686000000000000e+06
2.067740000000000000e+06
2.067885000000000000e+06
2.067974000000000000e+06
2.068250000000000000e+06
2.068565000000000000e+06
2.068930000000000000e+06
2.069294000000000000e+06
2.069674000000000000e+06
2.070039000000000000e+06
2.070135000000000000e+06
2.069726000000000000e+06
2.069108000000000000e+06
2.068653000000000000e+06
2.068414000000000000e+06
2.068432000000000000e+06
2.068581000000000000e+06
2.068822000000000000e+06
2.069024000000000000e+06
2.069227000000000000e+06
2.069448000000000000e+06
2.069787000000000000e+06
2.070119000000000000e+06
2.070431000000000000e+06
2.070729000000000000e+06
2.071061000000000000e+06
2.071309000000000000e+06
2.071422000000000000e+06
2.070964000000000000e+06
2.070130000000000000e+06
2.069327000000000000e+06
2.068732000000000000e+06
2.068378000000000000e+06
2.068231000000000000e+06
2.068286000000000000e+06
2.068336000000000000e+06
2.068382000000000000e+06
2.068454000000000000e+06
2.068548000000000000e+06
2.068698000000000000e+06
2.068826000000000000e+06
2.069052000000000000e+06
2.069246000000000000e+06
2.069415000000000000e+06
2.069622000000000000e+06
2.069570000000000000e+06
2.068944000000000000e+06
2.068126000000000000e+06
2.067698000000000000e+06
2.067136000000000000e+06
2.066883000000000000e+06
2.066858000000000000e+06
2.066987000000000000e+06
2.067148000000000000e+06
2.067278000000000000e+06
2.067451000000000000e+06
2.067647000000000000e+06
2.067757000000000000e+06
2.067899000000000000e+06
2.068135000000000000e+06
2.068387000000000000e+06
2.068684000000000000e+06
2.068910000000000000e+06
2.068672000000000000e+06
2.067984000000000000e+06
2.067618000000000000e+06
2.067119000000000000e+06
2.066836000000000000e+06
2.066829000000000000e+06
2.067017000000000000e+06
2.067255000000000000e+06
2.067448000000000000e+06
2.067647000000000000e+06
2.067735000000000000e+06
2.067899000000000000e+06
2.068176000000000000e+06
2.068503000000000000e+06
2.068886000000000000e+06
2.069234000000000000e+06
2.069545000000000000e+06
2.069336000000000000e+06
2.068591000000000000e+06
2.067905000000000000e+06
2.067439000000000000e+06
2.067001000000000000e+06
2.066832000000000000e+06
2.066894000000000000e+06
2.067054000000000000e+06
2.067155000000000000e+06
2.067264000000000000e+06
2.067362000000000000e+06
2.067496000000000000e+06
2.067629000000000000e+06
2.067747000000000000e+06
2.067890000000000000e+06
2.067957000000000000e+06
2.068178000000000000e+06
2.068281000000000000e+06
2.067845000000000000e+06
2.067023000000000000e+06
2.066073000000000000e+06
2.065344000000000000e+06
2.064874000000000000e+06
2.064644000000000000e+06
2.064655000000000000e+06
2.064744000000000000e+06
2.064800000000000000e+06
2.064880000000000000e+06
2.065003000000000000e+06
2.065179000000000000e+06
2.065437000000000000e+06
2.065746000000000000e+06
2.066093000000000000e+06
2.066427000000000000e+06
2.066797000000000000e+06
2.066917000000000000e+06
2.066302000000000000e+06
2.065525000000000000e+06
2.064636000000000000e+06
2.064283000000000000e+06
2.064143000000000000e+06
2.064246000000000000e+06
2.064349000000000000e+06
2.064431000000000000e+06
2.064492000000000000e+06
2.064570000000000000e+06
2.064723000000000000e+06
2.064899000000000000e+06
2.065167000000000000e+06
2.065515000000000000e+06
2.065855000000000000e+06
2.066201000000000000e+06
2.066254000000000000e+06
2.065617000000000000e+06
2.064607000000000000e+06
2.063713000000000000e+06
2.062966000000000000e+06
2.062525000000000000e+06
2.062387000000000000e+06
2.062436000000000000e+06
2.062506000000000000e+06
2.062541000000000000e+06
2.062625000000000000e+06
2.062725000000000000e+06
2.062914000000000000e+06
2.063103000000000000e+06
2.063337000000000000e+06
2.063661000000000000e+06
2.063941000000000000e+06
2.064116000000000000e+06
2.063940000000000000e+06
2.063004000000000000e+06
2.061975000000000000e+06
2.061208000000000000e+06
2.060717000000000000e+06
2.060543000000000000e+06
2.060651000000000000e+06
2.060841000000000000e+06
2.061067000000000000e+06
2.061248000000000000e+06
2.061479000000000000e+06
2.061748000000000000e+06
2.062070000000000000e+06
2.062412000000000000e+06
2.062810000000000000e+06
2.063194000000000000e+06
2.063628000000000000e+06
2.063946000000000000e+06
2.063337000000000000e+06
2.062588000000000000e+06
2.061924000000000000e+06
2.061602000000000000e+06
2.061528000000000000e+06
2.061728000000000000e+06
2.062059000000000000e+06
2.062336000000000000e+06
2.062599000000000000e+06
2.062888000000000000e+06
2.063219000000000000e+06
2.063631000000000000e+06
2.064034000000000000e+06
2.064407000000000000e+06
2.064792000000000000e+06
2.065213000000000000e+06
2.065506000000000000e+06
2.065198000000000000e+06
2.064452000000000000e+06
2.063659000000000000e+06
2.062980000000000000e+06
2.062681000000000000e+06
2.062644000000000000e+06
2.062772000000000000e+06
2.062969000000000000e+06
2.063076000000000000e+06
2.063174000000000000e+06
2.063312000000000000e+06
2.063514000000000000e+06
2.063756000000000000e+06
2.063995000000000000e+06
2.064295000000000000e+06
2.064554000000000000e+06
2.064801000000000000e+06
2.064815000000000000e+06
2.064123000000000000e+06
2.063094000000000000e+06
2.062262000000000000e+06
2.061737000000000000e+06
2.061466000000000000e+06
2.061427000000000000e+06
2.061719000000000000e+06
2.062042000000000000e+06
2.062342000000000000e+06
2.062684000000000000e+06
2.063042000000000000e+06
2.063489000000000000e+06
2.063980000000000000e+06
2.064433000000000000e+06
2.064837000000000000e+06
2.065239000000000000e+06
2.065588000000000000e+06
2.065509000000000000e+06
2.064823000000000000e+06
2.064099000000000000e+06
2.063526000000000000e+06
2.063187000000000000e+06
2.063180000000000000e+06
2.063413000000000000e+06
2.063680000000000000e+06
2.063889000000000000e+06
2.064024000000000000e+06
2.064189000000000000e+06
2.064355000000000000e+06
2.064582000000000000e+06
2.064871000000000000e+06
2.065128000000000000e+06
2.065435000000000000e+06
2.065682000000000000e+06
2.065754000000000000e+06
2.065197000000000000e+06
2.064415000000000000e+06
2.063674000000000000e+06
2.063140000000000000e+06
2.062907000000000000e+06
2.062941000000000000e+06
2.063124000000000000e+06
2.063329000000000000e+06
2.063472000000000000e+06
2.063676000000000000e+06
2.063814000000000000e+06
2.064025000000000000e+06
2.064221000000000000e+06
2.064458000000000000e+06
2.064707000000000000e+06
2.064986000000000000e+06
2.065241000000000000e+06
2.065281000000000000e+06
2.064688000000000000e+06
2.063985000000000000e+06
2.063328000000000000e+06
2.063004000000000000e+06
2.062940000000000000e+06
2.063129000000000000e+06
2.063485000000000000e+06
2.063868000000000000e+06
2.064098000000000000e+06
2.064398000000000000e+06
2.064726000000000000e+06
2.065091000000000000e+06
2.065482000000000000e+06
2.065861000000000000e+06
2.066299000000000000e+06
2.066730000000000000e+06
2.067049000000000000e+06
2.066763000000000000e+06
2.066231000000000000e+06
2.065745000000000000e+06
2.065439000000000000e+06
2.065386000000000000e+06
2.065549000000000000e+06
2.065835000000000000e+06
2.066132000000000000e+06
2.066405000000000000e+06
2.066669000000000000e+06
2.066951000000000000e+06
2.067233000000000000e+06
2.067522000000000000e+06
2.067720000000000000e+06
2.067892000000000000e+06
2.068008000000000000e+06
2.068210000000000000e+06
2.067953000000000000e+06
2.067545000000000000e+06
2.066770000000000000e+06
2.066134000000000000e+06
2.065696000000000000e+06
2.065525000000000000e+06
2.065544000000000000e+06
2.065625000000000000e+06
2.065698000000000000e+06
2.065749000000000000e+06
2.065819000000000000e+06
2.065955000000000000e+06
2.066093000000000000e+06
2.066268000000000000e+06
2.066508000000000000e+06
2.066694000000000000e+06
2.066896000000000000e+06
2.066924000000000000e+06
2.066407000000000000e+06
2.065652000000000000e+06
2.064974000000000000e+06
2.064519000000000000e+06
2.064402000000000000e+06
2.064538000000000000e+06
2.064771000000000000e+06
2.065028000000000000e+06
2.065228000000000000e+06
2.065482000000000000e+06
2.065753000000000000e+06
2.066073000000000000e+06
2.066403000000000000e+06
2.066794000000000000e+06
2.067169000000000000e+06
2.067539000000000000e+06
2.067722000000000000e+06
2.067424000000000000e+06
2.066886000000000000e+06
2.066433000000000000e+06
2.066184000000000000e+06
2.066191000000000000e+06
2.066403000000000000e+06
2.066721000000000000e+06
2.067024000000000000e+06
2.067290000000000000e+06
2.067605000000000000e+06
2.067820000000000000e+06
2.068023000000000000e+06
2.068426000000000000e+06
2.068757000000000000e+06
2.069070000000000000e+06
2.069320000000000000e+06
2.069305000000000000e+06
2.068714000000000000e+06
2.067992000000000000e+06
2.067648000000000000e+06
2.067205000000000000e+06
2.066981000000000000e+06
2.066959000000000000e+06
2.067051000000000000e+06
2.067149000000000000e+06
2.067224000000000000e+06
2.067328000000000000e+06
2.067447000000000000e+06
2.067602000000000000e+06
2.067728000000000000e+06
2.067857000000000000e+06
2.067934000000000000e+06
2.068157000000000000e+06
2.068003000000000000e+06
2.067600000000000000e+06
2.066832000000000000e+06
2.066185000000000000e+06
2.065734000000000000e+06
2.065558000000000000e+06
2.065606000000000000e+06
2.065767000000000000e+06
2.065908000000000000e+06
2.066064000000000000e+06
2.066205000000000000e+06
2.066460000000000000e+06
2.066720000000000000e+06
2.067097000000000000e+06
2.067453000000000000e+06
2.067731000000000000e+06
2.067943000000000000e+06
2.068114000000000000e+06
2.067892000000000000e+06
2.067511000000000000e+06
2.067099000000000000e+06
2.066887000000000000e+06
2.066860000000000000e+06
2.067086000000000000e+06
2.067409000000000000e+06
2.067712000000000000e+06
2.067874000000000000e+06
2.067981000000000000e+06
2.068312000000000000e+06
2.068655000000000000e+06
2.069085000000000000e+06
2.069516000000000000e+06
2.069984000000000000e+06
2.070472000000000000e+06
2.070600000000000000e+06
2.070192000000000000e+06
2.069543000000000000e+06
2.068939000000000000e+06
2.068529000000000000e+06
2.068252000000000000e+06
2.068319000000000000e+06
2.068520000000000000e+06
2.068704000000000000e+06
2.068856000000000000e+06
2.068947000000000000e+06
2.069050000000000000e+06
2.069143000000000000e+06
2.069471000000000000e+06
2.069771000000000000e+06
2.070062000000000000e+06
2.070341000000000000e+06
2.070546000000000000e+06
2.070176000000000000e+06
2.069660000000000000e+06
2.069184000000000000e+06
2.068896000000000000e+06
2.068836000000000000e+06
2.069010000000000000e+06
2.069303000000000000e+06
2.069495000000000000e+06
2.069732000000000000e+06
2.069961000000000000e+06
2.070259000000000000e+06
2.070610000000000000e+06
2.070976000000000000e+06
2.071341000000000000e+06
2.071740000000000000e+06
2.072114000000000000e+06
2.072443000000000000e+06
2.072069000000000000e+06
2.071492000000000000e+06
2.070939000000000000e+06
2.070523000000000000e+06
2.070247000000000000e+06
2.070191000000000000e+06
2.070310000000000000e+06
2.070423000000000000e+06
2.070542000000000000e+06
2.070688000000000000e+06
2.070847000000000000e+06
2.071018000000000000e+06
2.071256000000000000e+06
2.071460000000000000e+06
2.071697000000000000e+06
2.071947000000000000e+06
2.072128000000000000e+06
2.072114000000000000e+06
2.071537000000000000e+06
2.070776000000000000e+06
2.070169000000000000e+06
2.069671000000000000e+06
2.069385000000000000e+06
2.069319000000000000e+06
2.069394000000000000e+06
2.069523000000000000e+06
2.069653000000000000e+06
2.069794000000000000e+06
2.069988000000000000e+06
2.070212000000000000e+06
2.070464000000000000e+06
2.070739000000000000e+06
2.071040000000000000e+06
2.071340000000000000e+06
2.071574000000000000e+06
2.071290000000000000e+06
2.070775000000000000e+06
2.070320000000000000e+06
2.069992000000000000e+06
2.069880000000000000e+06
2.070000000000000000e+06
2.070211000000000000e+06
2.070443000000000000e+06
2.070694000000000000e+06
2.070931000000000000e+06
2.071211000000000000e+06
2.071531000000000000e+06
2.071849000000000000e+06
2.072252000000000000e+06
2.072570000000000000e+06
2.072858000000000000e+06
2.073133000000000000e+06
2.072966000000000000e+06
2.072423000000000000e+06
2.071773000000000000e+06
2.071277000000000000e+06
2.070969000000000000e+06
2.070875000000000000e+06
2.070930000000000000e+06
2.071047000000000000e+06
2.071138000000000000e+06
2.071256000000000000e+06
2.071385000000000000e+06
2.071527000000000000e+06
2.071677000000000000e+06
2.071871000000000000e+06
2.072034000000000000e+06
2.072264000000000000e+06
2.072452000000000000e+06
2.072572000000000000e+06
2.072252000000000000e+06
2.071524000000000000e+06
2.070717000000000000e+06
2.070282000000000000e+06
2.070002000000000000e+06
2.069960000000000000e+06
2.070016000000000000e+06
2.070076000000000000e+06
2.070114000000000000e+06
2.070151000000000000e+06
2.070218000000000000e+06
2.070350000000000000e+06
2.070529000000000000e+06
2.070735000000000000e+06
2.070951000000000000e+06
2.071187000000000000e+06
2.071404000000000000e+06
2.071545000000000000e+06
2.071206000000000000e+06
2.070652000000000000e+06
2.070138000000000000e+06
2.069788000000000000e+06
2.069674000000000000e+06
2.069728000000000000e+06
2.069841000000000000e+06
2.070012000000000000e+06
2.070169000000000000e+06
2.070291000000000000e+06
2.070483000000000000e+06
2.070694000000000000e+06
2.070971000000000000e+06
2.071234000000000000e+06
2.071506000000000000e+06
2.071850000000000000e+06
2.072118000000000000e+06
2.071841000000000000e+06
2.071298000000000000e+06
2.070809000000000000e+06
2.070412000000000000e+06
2.070258000000000000e+06
2.070284000000000000e+06
2.070450000000000000e+06
2.070644000000000000e+06
2.070810000000000000e+06
2.071042000000000000e+06
2.071278000000000000e+06
2.071576000000000000e+06
2.071877000000000000e+06
2.072318000000000000e+06
2.072670000000000000e+06
2.073068000000000000e+06
2.073231000000000000e+06
2.072768000000000000e+06
2.071968000000000000e+06
2.071234000000000000e+06
2.070625000000000000e+06
2.070197000000000000e+06
2.070024000000000000e+06
2.069985000000000000e+06
2.069986000000000000e+06
2.069998000000000000e+06
2.070018000000000000e+06
2.070070000000000000e+06
2.070126000000000000e+06
2.070234000000000000e+06
2.070377000000000000e+06
2.070516000000000000e+06
2.070719000000000000e+06
2.070786000000000000e+06
2.070414000000000000e+06
2.069545000000000000e+06
2.068551000000000000e+06
2.067908000000000000e+06
2.067615000000000000e+06
2.067297000000000000e+06
2.067203000000000000e+06
2.067225000000000000e+06
2.067233000000000000e+06
2.067215000000000000e+06
2.067229000000000000e+06
2.067322000000000000e+06
2.067506000000000000e+06
2.067718000000000000e+06
2.067827000000000000e+06
2.067947000000000000e+06
2.068226000000000000e+06
2.068300000000000000e+06
2.067905000000000000e+06
2.067265000000000000e+06
2.066562000000000000e+06
2.066141000000000000e+06
2.065922000000000000e+06
2.065977000000000000e+06
2.066148000000000000e+06
2.066372000000000000e+06
2.066555000000000000e+06
2.066754000000000000e+06
2.067002000000000000e+06
2.067271000000000000e+06
2.067595000000000000e+06
2.067819000000000000e+06
2.068061000000000000e+06
2.068374000000000000e+06
2.068466000000000000e+06
2.067925000000000000e+06
2.067369000000000000e+06
2.066665000000000000e+06
2.066178000000000000e+06
2.065947000000000000e+06
2.066007000000000000e+06
2.066156000000000000e+06
2.066279000000000000e+06
2.066415000000000000e+06
2.066561000000000000e+06
2.066742000000000000e+06
2.066955000000000000e+06
2.067168000000000000e+06
2.067462000000000000e+06
2.067708000000000000e+06
2.067837000000000000e+06
2.067937000000000000e+06
2.067882000000000000e+06
2.067274000000000000e+06
2.066392000000000000e+06
2.065669000000000000e+06
2.065198000000000000e+06
2.064989000000000000e+06
2.065049000000000000e+06
2.065218000000000000e+06
2.065345000000000000e+06
2.065475000000000000e+06
2.065617000000000000e+06
2.065829000000000000e+06
2.066005000000000000e+06
2.066255000000000000e+06
2.066520000000000000e+06
2.066788000000000000e+06
2.067067000000000000e+06
2.067372000000000000e+06
2.067427000000000000e+06
2.066878000000000000e+06
2.066207000000000000e+06
2.065569000000000000e+06
2.065143000000000000e+06
2.065036000000000000e+06
2.065135000000000000e+06
2.065415000000000000e+06
2.065713000000000000e+06
2.065988000000000000e+06
2.066250000000000000e+06
2.066561000000000000e+06
2.066903000000000000e+06
2.067235000000000000e+06
2.067700000000000000e+06
2.067859000000000000e+06
2.068029000000000000e+06
2.068344000000000000e+06
2.068440000000000000e+06
2.067986000000000000e+06
2.067709000000000000e+06
2.067309000000000000e+06
2.067062000000000000e+06
2.067080000000000000e+06
2.067243000000000000e+06
2.067468000000000000e+06
2.067691000000000000e+06
2.067724000000000000e+06
2.067831000000000000e+06
2.067898000000000000e+06
2.067980000000000000e+06
2.068146000000000000e+06
2.068329000000000000e+06
2.068527000000000000e+06
2.068698000000000000e+06
2.068886000000000000e+06
2.068927000000000000e+06
2.068418000000000000e+06
2.067856000000000000e+06
2.067343000000000000e+06
2.066828000000000000e+06
2.066559000000000000e+06
2.066460000000000000e+06
2.066518000000000000e+06
2.066618000000000000e+06
2.066694000000000000e+06
2.066793000000000000e+06
2.066904000000000000e+06
2.067048000000000000e+06
2.067202000000000000e+06
2.067416000000000000e+06
2.067632000000000000e+06
2.067756000000000000e+06
2.067911000000000000e+06
2.068021000000000000e+06
2.067835000000000000e+06
2.067393000000000000e+06
2.066749000000000000e+06
2.066358000000000000e+06
2.066164000000000000e+06
2.066170000000000000e+06
2.066351000000000000e+06
2.066555000000000000e+06
2.066787000000000000e+06
2.067021000000000000e+06
2.067257000000000000e+06
2.067677000000000000e+06
2.067853000000000000e+06
2.068071000000000000e+06
2.068440000000000000e+06
2.068831000000000000e+06
2.069209000000000000e+06
2.069308000000000000e+06
2.068917000000000000e+06
2.068397000000000000e+06
2.067968000000000000e+06
2.067860000000000000e+06
2.067850000000000000e+06
2.067893000000000000e+06
2.068027000000000000e+06
2.068227000000000000e+06
2.068372000000000000e+06
2.068510000000000000e+06
2.068675000000000000e+06
2.068898000000000000e+06
2.069104000000000000e+06
2.069314000000000000e+06
2.069509000000000000e+06
2.069683000000000000e+06
2.069825000000000000e+06
2.069702000000000000e+06
2.068988000000000000e+06
2.068109000000000000e+06
2.067685000000000000e+06
2.067123000000000000e+06
2.066772000000000000e+06
2.066674000000000000e+06
2.066687000000000000e+06
2.066651000000000000e+06
2.066714000000000000e+06
2.066725000000000000e+06
2.066698000000000000e+06
2.066841000000000000e+06
2.066987000000000000e+06
2.067156000000000000e+06
2.067348000000000000e+06
2.067600000000000000e+06
2.067698000000000000e+06
2.067697000000000000e+06
2.067087000000000000e+06
2.066305000000000000e+06
2.065740000000000000e+06
2.065364000000000000e+06
2.065187000000000000e+06
2.065250000000000000e+06
2.065488000000000000e+06
2.065622000000000000e+06
2.065752000000000000e+06
2.065956000000000000e+06
2.066179000000000000e+06
2.066476000000000000e+06
2.066830000000000000e+06
2.067175000000000000e+06
2.067527000000000000e+06
2.067773000000000000e+06
2.067839000000000000e+06
2.067590000000000000e+06
2.066958000000000000e+06
2.066482000000000000e+06
2.066202000000000000e+06
2.066120000000000000e+06
2.066206000000000000e+06
2.066360000000000000e+06
2.066489000000000000e+06
2.066619000000000000e+06
2.066650000000000000e+06
2.066677000000000000e+06
2.066828000000000000e+06
2.067038000000000000e+06
2.067209000000000000e+06
2.067400000000000000e+06
2.067545000000000000e+06
2.067563000000000000e+06
2.066987000000000000e+06
2.066140000000000000e+06
2.065271000000000000e+06
2.064607000000000000e+06
2.064139000000000000e+06
2.063979000000000000e+06
2.063995000000000000e+06
2.064038000000000000e+06
2.064076000000000000e+06
2.064085000000000000e+06
2.064132000000000000e+06
2.064201000000000000e+06
2.064339000000000000e+06
2.064500000000000000e+06
2.064691000000000000e+06
2.064920000000000000e+06
2.065195000000000000e+06
2.065056000000000000e+06
2.064391000000000000e+06
2.063637000000000000e+06
2.062969000000000000e+06
2.062651000000000000e+06
2.062589000000000000e+06
2.062786000000000000e+06
2.063030000000000000e+06
2.063255000000000000e+06
2.063528000000000000e+06
2.063820000000000000e+06
2.064112000000000000e+06
2.064466000000000000e+06
2.064834000000000000e+06
2.065214000000000000e+06
2.065611000000000000e+06
2.065988000000000000e+06
2.066027000000000000e+06
2.065510000000000000e+06
2.064898000000000000e+06
2.064454000000000000e+06
2.064219000000000000e+06
2.064245000000000000e+06
2.064402000000000000e+06
2.064720000000000000e+06
2.064925000000000000e+06
2.065172000000000000e+06
2.065361000000000000e+06
2.065581000000000000e+06
2.065816000000000000e+06
2.066025000000000000e+06
2.066258000000000000e+06
2.066515000000000000e+06
2.066732000000000000e+06
2.066916000000000000e+06
2.066616000000000000e+06
2.065881000000000000e+06
2.065164000000000000e+06
2.064579000000000000e+06
2.064248000000000000e+06
2.064125000000000000e+06
2.064206000000000000e+06
2.064399000000000000e+06
2.064526000000000000e+06
2.064683000000000000e+06
2.064804000000000000e+06
2.064968000000000000e+06
2.065163000000000000e+06
2.065379000000000000e+06
2.065648000000000000e+06
2.065890000000000000e+06
2.066108000000000000e+06
2.066324000000000000e+06
2.066074000000000000e+06
2.065453000000000000e+06
2.064817000000000000e+06
2.064387000000000000e+06
2.064149000000000000e+06
2.064181000000000000e+06
2.064395000000000000e+06
2.064643000000000000e+06
2.064885000000000000e+06
2.065132000000000000e+06
2.065407000000000000e+06
2.065726000000000000e+06
2.066042000000000000e+06
2.066390000000000000e+06
2.066780000000000000e+06
2.067154000000000000e+06
2.067518000000000000e+06
2.067723000000000000e+06
2.067394000000000000e+06
2.066978000000000000e+06
2.066621000000000000e+06
2.066447000000000000e+06
2.066502000000000000e+06
2.066724000000000000e+06
2.067051000000000000e+06
2.067359000000000000e+06
2.067636000000000000e+06
2.067764000000000000e+06
2.067929000000000000e+06
2.068239000000000000e+06
2.068549000000000000e+06
2.068850000000000000e+06
2.069174000000000000e+06
2.069413000000000000e+06
2.069648000000000000e+06
2.069505000000000000e+06
2.068940000000000000e+06
2.068272000000000000e+06
2.067876000000000000e+06
2.067676000000000000e+06
2.067539000000000000e+06
2.067558000000000000e+06
2.067636000000000000e+06
2.067693000000000000e+06
2.067717000000000000e+06
2.067777000000000000e+06
2.067842000000000000e+06
2.067912000000000000e+06
2.068020000000000000e+06
2.068157000000000000e+06
2.068295000000000000e+06
2.068427000000000000e+06
2.068557000000000000e+06
2.068197000000000000e+06
2.067731000000000000e+06
2.067080000000000000e+06
2.066508000000000000e+06
2.066061000000000000e+06
2.065989000000000000e+06
2.066026000000000000e+06
2.066177000000000000e+06
2.066303000000000000e+06
2.066439000000000000e+06
2.066636000000000000e+06
2.066857000000000000e+06
2.067115000000000000e+06
2.067375000000000000e+06
2.067671000000000000e+06
2.067811000000000000e+06
2.067962000000000000e+06
2.068021000000000000e+06
2.067742000000000000e+06
2.067257000000000000e+06
2.066791000000000000e+06
2.066506000000000000e+06
2.066437000000000000e+06
2.066587000000000000e+06
2.066868000000000000e+06
2.067112000000000000e+06
2.067385000000000000e+06
2.067666000000000000e+06
2.067809000000000000e+06
2.067960000000000000e+06
2.068235000000000000e+06
2.068573000000000000e+06
2.068891000000000000e+06
2.069166000000000000e+06
2.069303000000000000e+06
2.068823000000000000e+06
2.068085000000000000e+06
2.067667000000000000e+06
2.067163000000000000e+06
2.066880000000000000e+06
2.066805000000000000e+06
2.066886000000000000e+06
2.066987000000000000e+06
2.067024000000000000e+06
2.067078000000000000e+06
2.067103000000000000e+06
2.067214000000000000e+06
2.067384000000000000e+06
2.067494000000000000e+06
2.067689000000000000e+06
2.067857000000000000e+06
2.067937000000000000e+06
2.067866000000000000e+06
2.067240000000000000e+06
2.066297000000000000e+06
2.065292000000000000e+06
2.064786000000000000e+06
2.064501000000000000e+06
2.064463000000000000e+06
2.064533000000000000e+06
2.064609000000000000e+06
2.064701000000000000e+06
2.064797000000000000e+06
2.064994000000000000e+06
2.065231000000000000e+06
2.065590000000000000e+06
2.065907000000000000e+06
2.066214000000000000e+06
2.066569000000000000e+06
2.066695000000000000e+06
2.066190000000000000e+06
2.065581000000000000e+06
2.064955000000000000e+06
2.064561000000000000e+06
2.064500000000000000e+06
2.064612000000000000e+06
2.064878000000000000e+06
2.065140000000000000e+06
2.065403000000000000e+06
2.065683000000000000e+06
2.066007000000000000e+06
2.066373000000000000e+06
2.066748000000000000e+06
2.067164000000000000e+06
2.067606000000000000e+06
2.067773000000000000e+06
2.067905000000000000e+06
2.067665000000000000e+06
2.066859000000000000e+06
2.066161000000000000e+06
2.065618000000000000e+06
2.065331000000000000e+06
2.065320000000000000e+06
2.065444000000000000e+06
2.065598000000000000e+06
2.065754000000000000e+06
2.065841000000000000e+06
2.065937000000000000e+06
2.066080000000000000e+06
2.066263000000000000e+06
2.066418000000000000e+06
2.066647000000000000e+06
2.066820000000000000e+06
2.066989000000000000e+06
2.066738000000000000e+06
2.065933000000000000e+06
2.065079000000000000e+06
2.064232000000000000e+06
2.063852000000000000e+06
2.063728000000000000e+06
2.063798000000000000e+06
2.063897000000000000e+06
2.064022000000000000e+06
2.064137000000000000e+06
2.064215000000000000e+06
2.064379000000000000e+06
2.064574000000000000e+06
2.064785000000000000e+06
2.065057000000000000e+06
2.065355000000000000e+06
2.065656000000000000e+06
2.065897000000000000e+06
2.065599000000000000e+06
2.064928000000000000e+06
2.064304000000000000e+06
2.063898000000000000e+06
2.063726000000000000e+06
2.063825000000000000e+06
2.064076000000000000e+06
2.064373000000000000e+06
2.064641000000000000e+06
2.064937000000000000e+06
2.065222000000000000e+06
2.065550000000000000e+06
2.065932000000000000e+06
2.066331000000000000e+06
2.066732000000000000e+06
2.067133000000000000e+06
2.067530000000000000e+06
2.067644000000000000e+06
2.067188000000000000e+06
2.066634000000000000e+06
2.066180000000000000e+06
2.065929000000000000e+06
2.065921000000000000e+06
2.066084000000000000e+06
2.066371000000000000e+06
2.066640000000000000e+06
2.066830000000000000e+06
2.067069000000000000e+06
2.067302000000000000e+06
2.067542000000000000e+06
2.067721000000000000e+06
2.067884000000000000e+06
2.068083000000000000e+06
2.068315000000000000e+06
2.068561000000000000e+06
2.068461000000000000e+06
2.067829000000000000e+06
2.067208000000000000e+06
2.066609000000000000e+06
2.066238000000000000e+06
2.066081000000000000e+06
2.066135000000000000e+06
2.066240000000000000e+06
